106.0 
106.0 335.0 
106.0 335.0 228.0 
106.0 335.0 228.0 -227.0 
106.0 335.0 228.0 -227.0 -59.0 
106.0 335.0 228.0 -227.0 -59.0 291.0 
106.0 335.0 228.0 -227.0 -59.0 291.0 -392.0 
106.0 335.0 228.0 -227.0 -59.0 291.0 -392.0 -45.0 
106.0 335.0 228.0 -227.0 -59.0 291.0 -392.0 -45.0 443.0 
106.0 335.0 228.0 -227.0 -59.0 291.0 -392.0 -45.0 443.0 372.0 
106.0 335.0 228.0 -227.0 -59.0 291.0 -392.0 -45.0 443.0 372.0 908.0 
106.0 335.0 228.0 -227.0 -59.0 291.0 -392.0 -45.0 443.0 372.0 908.0 395.0 
106.0 
106.0 335.0 
106.0 335.0 228.0 
106.0 335.0 228.0 -227.0 
106.0 335.0 228.0 -227.0 -59.0 
106.0 335.0 228.0 -227.0 -59.0 291.0 
106.0 335.0 228.0 -227.0 -59.0 291.0 -392.0 
106.0 335.0 228.0 -227.0 -59.0 291.0 -392.0 -45.0 
106.0 335.0 228.0 -227.0 -59.0 291.0 -392.0 -45.0 443.0 
106.0 335.0 228.0 -227.0 -59.0 291.0 -392.0 -45.0 443.0 372.0 
106.0 335.0 228.0 -227.0 -59.0 291.0 -392.0 -45.0 443.0 372.0 908.0 
106.0 335.0 228.0 -227.0 -59.0 291.0 -392.0 -45.0 443.0 372.0 908.0 395.0 
106.0 
106.0 325.0 
106.0 325.0 219.0 
106.0 325.0 219.0 -219.0 
106.0 325.0 219.0 -219.0 -60.0 
106.0 325.0 219.0 -219.0 -60.0 284.0 
106.0 325.0 219.0 -219.0 -60.0 284.0 492.0 
106.0 325.0 219.0 -219.0 -60.0 284.0 492.0 837.0 
106.0 325.0 219.0 -219.0 -60.0 284.0 492.0 837.0 239.0 
106.0 325.0 219.0 -219.0 -60.0 284.0 492.0 837.0 239.0 372.0 
106.0 325.0 219.0 -219.0 -60.0 284.0 492.0 837.0 239.0 372.0 908.0 
106.0 325.0 219.0 -219.0 -60.0 284.0 492.0 837.0 239.0 372.0 908.0 405.0 
86.0 
86.0 306.0 
86.0 306.0 219.0 
86.0 306.0 219.0 -214.0 
86.0 306.0 219.0 -214.0 -55.0 
86.0 306.0 219.0 -214.0 -55.0 274.0 
86.0 306.0 219.0 -214.0 -55.0 274.0 487.0 
86.0 306.0 219.0 -214.0 -55.0 274.0 487.0 832.0 
86.0 306.0 219.0 -214.0 -55.0 274.0 487.0 832.0 240.0 
86.0 306.0 219.0 -214.0 -55.0 274.0 487.0 832.0 240.0 404.0 
86.0 306.0 219.0 -214.0 -55.0 274.0 487.0 832.0 240.0 404.0 179.0 
86.0 306.0 219.0 -214.0 -55.0 274.0 487.0 832.0 240.0 404.0 179.0 -63.0 
96.0 
96.0 320.0 
96.0 320.0 224.0 
96.0 320.0 224.0 -195.0 
96.0 320.0 224.0 -195.0 -65.0 
96.0 320.0 224.0 -195.0 -65.0 264.0 
96.0 320.0 224.0 -195.0 -65.0 264.0 492.0 
96.0 320.0 224.0 -195.0 -65.0 264.0 492.0 842.0 
96.0 320.0 224.0 -195.0 -65.0 264.0 492.0 842.0 244.0 
96.0 320.0 224.0 -195.0 -65.0 264.0 492.0 842.0 244.0 404.0 
96.0 320.0 224.0 -195.0 -65.0 264.0 492.0 842.0 244.0 404.0 174.0 
96.0 320.0 224.0 -195.0 -65.0 264.0 492.0 842.0 244.0 404.0 174.0 -62.0 
106.0 
106.0 325.0 
106.0 325.0 219.0 
106.0 325.0 219.0 -207.0 
106.0 325.0 219.0 -207.0 -62.0 
106.0 325.0 219.0 -207.0 -62.0 274.0 
106.0 325.0 219.0 -207.0 -62.0 274.0 492.0 
106.0 325.0 219.0 -207.0 -62.0 274.0 492.0 832.0 
106.0 325.0 219.0 -207.0 -62.0 274.0 492.0 832.0 235.0 
106.0 325.0 219.0 -207.0 -62.0 274.0 492.0 832.0 235.0 414.0 
106.0 325.0 219.0 -207.0 -62.0 274.0 492.0 832.0 235.0 414.0 189.0 
106.0 325.0 219.0 -207.0 -62.0 274.0 492.0 832.0 235.0 414.0 189.0 -52.0 
96.0 
96.0 335.0 
96.0 335.0 238.0 
96.0 335.0 238.0 -214.0 
96.0 335.0 238.0 -214.0 -55.0 
96.0 335.0 238.0 -214.0 -55.0 274.0 
96.0 335.0 238.0 -214.0 -55.0 274.0 492.0 
96.0 335.0 238.0 -214.0 -55.0 274.0 492.0 836.0 
96.0 335.0 238.0 -214.0 -55.0 274.0 492.0 836.0 235.0 
96.0 335.0 238.0 -214.0 -55.0 274.0 492.0 836.0 235.0 399.0 
96.0 335.0 238.0 -214.0 -55.0 274.0 492.0 836.0 235.0 399.0 174.0 
96.0 335.0 238.0 -214.0 -55.0 274.0 492.0 836.0 235.0 399.0 174.0 -67.0 
96.0 
96.0 325.0 
96.0 325.0 228.0 
96.0 325.0 228.0 -214.0 
96.0 325.0 228.0 -214.0 -70.0 
96.0 325.0 228.0 -214.0 -70.0 288.0 
96.0 325.0 228.0 -214.0 -70.0 288.0 492.0 
96.0 325.0 228.0 -214.0 -70.0 288.0 492.0 831.0 
96.0 325.0 228.0 -214.0 -70.0 288.0 492.0 831.0 230.0 
96.0 325.0 228.0 -214.0 -70.0 288.0 492.0 831.0 230.0 399.0 
96.0 325.0 228.0 -214.0 -70.0 288.0 492.0 831.0 230.0 399.0 174.0 
96.0 325.0 228.0 -214.0 -70.0 288.0 492.0 831.0 230.0 399.0 174.0 -62.0 
116.0 
116.0 335.0 
116.0 335.0 219.0 
116.0 335.0 219.0 -209.0 
116.0 335.0 219.0 -209.0 -65.0 
116.0 335.0 219.0 -209.0 -65.0 279.0 
116.0 335.0 219.0 -209.0 -65.0 279.0 487.0 
116.0 335.0 219.0 -209.0 -65.0 279.0 487.0 825.0 
116.0 335.0 219.0 -209.0 -65.0 279.0 487.0 825.0 230.0 
116.0 335.0 219.0 -209.0 -65.0 279.0 487.0 825.0 230.0 394.0 
116.0 335.0 219.0 -209.0 -65.0 279.0 487.0 825.0 230.0 394.0 174.0 
116.0 335.0 219.0 -209.0 -65.0 279.0 487.0 825.0 230.0 394.0 174.0 -67.0 
101.0 
101.0 335.0 
101.0 335.0 233.0 
101.0 335.0 233.0 -224.0 
101.0 335.0 233.0 -224.0 -50.0 
101.0 335.0 233.0 -224.0 -50.0 279.0 
101.0 335.0 233.0 -224.0 -50.0 279.0 492.0 
101.0 335.0 233.0 -224.0 -50.0 279.0 492.0 835.0 
101.0 335.0 233.0 -224.0 -50.0 279.0 492.0 835.0 240.0 
101.0 335.0 233.0 -224.0 -50.0 279.0 492.0 835.0 240.0 394.0 
101.0 335.0 233.0 -224.0 -50.0 279.0 492.0 835.0 240.0 394.0 164.0 
101.0 335.0 233.0 -224.0 -50.0 279.0 492.0 835.0 240.0 394.0 164.0 -86.0 
86.0 
86.0 335.0 
86.0 335.0 248.0 
86.0 335.0 248.0 -217.0 
86.0 335.0 248.0 -217.0 -65.0 
86.0 335.0 248.0 -217.0 -65.0 286.0 
86.0 335.0 248.0 -217.0 -65.0 286.0 482.0 
86.0 335.0 248.0 -217.0 -65.0 286.0 482.0 830.0 
86.0 335.0 248.0 -217.0 -65.0 286.0 482.0 830.0 240.0 
86.0 335.0 248.0 -217.0 -65.0 286.0 482.0 830.0 240.0 403.0 
86.0 335.0 248.0 -217.0 -65.0 286.0 482.0 830.0 240.0 403.0 184.0 
86.0 335.0 248.0 -217.0 -65.0 286.0 482.0 830.0 240.0 403.0 184.0 -56.0 
106.0 
106.0 340.0 
106.0 340.0 233.0 
106.0 340.0 233.0 -209.0 
106.0 340.0 233.0 -209.0 -79.0 
106.0 340.0 233.0 -209.0 -79.0 293.0 
106.0 340.0 233.0 -209.0 -79.0 293.0 482.0 
106.0 340.0 233.0 -209.0 -79.0 293.0 482.0 825.0 
106.0 340.0 233.0 -209.0 -79.0 293.0 482.0 825.0 235.0 
106.0 340.0 233.0 -209.0 -79.0 293.0 482.0 825.0 235.0 403.0 
106.0 340.0 233.0 -209.0 -79.0 293.0 482.0 825.0 235.0 403.0 174.0 
106.0 340.0 233.0 -209.0 -79.0 293.0 482.0 825.0 235.0 403.0 174.0 -66.0 
86.0 
86.0 315.0 
86.0 315.0 228.0 
86.0 315.0 228.0 -222.0 
86.0 315.0 228.0 -222.0 -62.0 
86.0 315.0 228.0 -222.0 -62.0 288.0 
86.0 315.0 228.0 -222.0 -62.0 288.0 482.0 
86.0 315.0 228.0 -222.0 -62.0 288.0 482.0 815.0 
86.0 315.0 228.0 -222.0 -62.0 288.0 482.0 815.0 225.0 
86.0 315.0 228.0 -222.0 -62.0 288.0 482.0 815.0 225.0 403.0 
86.0 315.0 228.0 -222.0 -62.0 288.0 482.0 815.0 225.0 403.0 174.0 
86.0 315.0 228.0 -222.0 -62.0 288.0 482.0 815.0 225.0 403.0 174.0 -71.0 
77.0 
77.0 296.0 
77.0 296.0 219.0 
77.0 296.0 219.0 -200.0 
77.0 296.0 219.0 -200.0 -70.0 
77.0 296.0 219.0 -200.0 -70.0 274.0 
77.0 296.0 219.0 -200.0 -70.0 274.0 477.0 
77.0 296.0 219.0 -200.0 -70.0 274.0 477.0 825.0 
77.0 296.0 219.0 -200.0 -70.0 274.0 477.0 825.0 235.0 
77.0 296.0 219.0 -200.0 -70.0 274.0 477.0 825.0 235.0 397.0 
77.0 296.0 219.0 -200.0 -70.0 274.0 477.0 825.0 235.0 397.0 174.0 
77.0 296.0 219.0 -200.0 -70.0 274.0 477.0 825.0 235.0 397.0 174.0 -66.0 
91.0 
91.0 297.0 
91.0 297.0 204.0 
91.0 297.0 204.0 -185.0 
91.0 297.0 204.0 -185.0 -70.0 
91.0 297.0 204.0 -185.0 -70.0 259.0 
91.0 297.0 204.0 -185.0 -70.0 259.0 497.0 
91.0 297.0 204.0 -185.0 -70.0 259.0 497.0 839.0 
91.0 297.0 204.0 -185.0 -70.0 259.0 497.0 839.0 235.0 
91.0 297.0 204.0 -185.0 -70.0 259.0 497.0 839.0 235.0 397.0 
91.0 297.0 204.0 -185.0 -70.0 259.0 497.0 839.0 235.0 397.0 164.0 
91.0 297.0 204.0 -185.0 -70.0 259.0 497.0 839.0 235.0 397.0 164.0 -75.0 
96.0 
96.0 302.0 
96.0 302.0 204.0 
96.0 302.0 204.0 -192.0 
96.0 302.0 204.0 -192.0 -55.0 
96.0 302.0 204.0 -192.0 -55.0 252.0 
96.0 302.0 204.0 -192.0 -55.0 252.0 492.0 
96.0 302.0 204.0 -192.0 -55.0 252.0 492.0 829.0 
96.0 302.0 204.0 -192.0 -55.0 252.0 492.0 829.0 225.0 
96.0 302.0 204.0 -192.0 -55.0 252.0 492.0 829.0 225.0 397.0 
96.0 302.0 204.0 -192.0 -55.0 252.0 492.0 829.0 225.0 397.0 169.0 
96.0 302.0 204.0 -192.0 -55.0 252.0 492.0 829.0 225.0 397.0 169.0 -75.0 
111.0 
111.0 326.0 
111.0 326.0 214.0 
111.0 326.0 214.0 -197.0 
111.0 326.0 214.0 -197.0 -53.0 
111.0 326.0 214.0 -197.0 -53.0 254.0 
111.0 326.0 214.0 -197.0 -53.0 254.0 497.0 
111.0 326.0 214.0 -197.0 -53.0 254.0 497.0 829.0 
111.0 326.0 214.0 -197.0 -53.0 254.0 497.0 829.0 230.0 
111.0 326.0 214.0 -197.0 -53.0 254.0 497.0 829.0 230.0 388.0 
111.0 326.0 214.0 -197.0 -53.0 254.0 497.0 829.0 230.0 388.0 154.0 
111.0 326.0 214.0 -197.0 -53.0 254.0 497.0 829.0 230.0 388.0 154.0 -85.0 
106.0 
106.0 326.0 
106.0 326.0 219.0 
106.0 326.0 219.0 -217.0 
106.0 326.0 219.0 -217.0 -50.0 
106.0 326.0 219.0 -217.0 -50.0 271.0 
106.0 326.0 219.0 -217.0 -50.0 271.0 497.0 
106.0 326.0 219.0 -217.0 -50.0 271.0 497.0 833.0 
106.0 326.0 219.0 -217.0 -50.0 271.0 497.0 833.0 235.0 
106.0 326.0 219.0 -217.0 -50.0 271.0 497.0 833.0 235.0 388.0 
106.0 326.0 219.0 -217.0 -50.0 271.0 497.0 833.0 235.0 388.0 155.0 
106.0 326.0 219.0 -217.0 -50.0 271.0 497.0 833.0 235.0 388.0 155.0 -88.0 
91.0 
91.0 321.0 
91.0 321.0 228.0 
91.0 321.0 228.0 -214.0 
91.0 321.0 228.0 -214.0 -55.0 
91.0 321.0 228.0 -214.0 -55.0 274.0 
91.0 321.0 228.0 -214.0 -55.0 274.0 486.0 
91.0 321.0 228.0 -214.0 -55.0 274.0 486.0 833.0 
91.0 321.0 228.0 -214.0 -55.0 274.0 486.0 833.0 244.0 
91.0 321.0 228.0 -214.0 -55.0 274.0 486.0 833.0 244.0 402.0 
91.0 321.0 228.0 -214.0 -55.0 274.0 486.0 833.0 244.0 402.0 165.0 
91.0 321.0 228.0 -214.0 -55.0 274.0 486.0 833.0 244.0 402.0 165.0 -83.0 
96.0 
96.0 321.0 
96.0 321.0 224.0 
96.0 321.0 224.0 -205.0 
96.0 321.0 224.0 -205.0 -67.0 
96.0 321.0 224.0 -205.0 -67.0 276.0 
96.0 321.0 224.0 -205.0 -67.0 276.0 486.0 
96.0 321.0 224.0 -205.0 -67.0 276.0 486.0 837.0 
96.0 321.0 224.0 -205.0 -67.0 276.0 486.0 837.0 244.0 
96.0 321.0 224.0 -205.0 -67.0 276.0 486.0 837.0 244.0 407.0 
96.0 321.0 224.0 -205.0 -67.0 276.0 486.0 837.0 244.0 407.0 175.0 
96.0 321.0 224.0 -205.0 -67.0 276.0 486.0 837.0 244.0 407.0 175.0 -69.0 
77.0 
77.0 302.0 
77.0 302.0 224.0 
77.0 302.0 224.0 -207.0 
77.0 302.0 224.0 -207.0 -62.0 
77.0 302.0 224.0 -207.0 -62.0 274.0 
77.0 302.0 224.0 -207.0 -62.0 274.0 496.0 
77.0 302.0 224.0 -207.0 -62.0 274.0 496.0 832.0 
77.0 302.0 224.0 -207.0 -62.0 274.0 496.0 832.0 235.0 
77.0 302.0 224.0 -207.0 -62.0 274.0 496.0 832.0 235.0 407.0 
77.0 302.0 224.0 -207.0 -62.0 274.0 496.0 832.0 235.0 407.0 175.0 
77.0 302.0 224.0 -207.0 -62.0 274.0 496.0 832.0 235.0 407.0 175.0 -69.0 
81.0 
81.0 298.0 
81.0 298.0 214.0 
81.0 298.0 214.0 -187.0 
81.0 298.0 214.0 -187.0 -72.0 
81.0 298.0 214.0 -187.0 -72.0 264.0 
81.0 298.0 214.0 -187.0 -72.0 264.0 486.0 
81.0 298.0 214.0 -187.0 -72.0 264.0 486.0 822.0 
81.0 298.0 214.0 -187.0 -72.0 264.0 486.0 822.0 215.0 
81.0 298.0 214.0 -187.0 -72.0 264.0 486.0 822.0 215.0 392.0 
81.0 298.0 214.0 -187.0 -72.0 264.0 486.0 822.0 215.0 392.0 165.0 
81.0 298.0 214.0 -187.0 -72.0 264.0 486.0 822.0 215.0 392.0 165.0 -73.0 
91.0 
91.0 298.0 
91.0 298.0 204.0 
91.0 298.0 204.0 -187.0 
91.0 298.0 204.0 -187.0 -65.0 
91.0 298.0 204.0 -187.0 -65.0 257.0 
91.0 298.0 204.0 -187.0 -65.0 257.0 496.0 
91.0 298.0 204.0 -187.0 -65.0 257.0 496.0 827.0 
91.0 298.0 204.0 -187.0 -65.0 257.0 496.0 827.0 220.0 
91.0 298.0 204.0 -187.0 -65.0 257.0 496.0 827.0 220.0 378.0 
91.0 298.0 204.0 -187.0 -65.0 257.0 496.0 827.0 220.0 378.0 146.0 
91.0 298.0 204.0 -187.0 -65.0 257.0 496.0 827.0 220.0 378.0 146.0 -83.0 
101.0 
101.0 317.0 
101.0 317.0 214.0 
101.0 317.0 214.0 -192.0 
101.0 317.0 214.0 -192.0 -55.0 
101.0 317.0 214.0 -192.0 -55.0 253.0 
101.0 317.0 214.0 -192.0 -55.0 253.0 496.0 
101.0 317.0 214.0 -192.0 -55.0 253.0 496.0 832.0 
101.0 317.0 214.0 -192.0 -55.0 253.0 496.0 832.0 230.0 
101.0 317.0 214.0 -192.0 -55.0 253.0 496.0 832.0 230.0 377.0 
101.0 317.0 214.0 -192.0 -55.0 253.0 496.0 832.0 230.0 377.0 151.0 
101.0 317.0 214.0 -192.0 -55.0 253.0 496.0 832.0 230.0 377.0 151.0 -88.0 
111.0 
111.0 332.0 
111.0 332.0 219.0 
111.0 332.0 219.0 -207.0 
111.0 332.0 219.0 -207.0 -55.0 
111.0 332.0 219.0 -207.0 -55.0 267.0 
111.0 332.0 219.0 -207.0 -55.0 267.0 490.0 
111.0 332.0 219.0 -207.0 -55.0 267.0 490.0 827.0 
111.0 332.0 219.0 -207.0 -55.0 267.0 490.0 827.0 225.0 
111.0 332.0 219.0 -207.0 -55.0 267.0 490.0 827.0 225.0 387.0 
111.0 332.0 219.0 -207.0 -55.0 267.0 490.0 827.0 225.0 387.0 161.0 
111.0 332.0 219.0 -207.0 -55.0 267.0 490.0 827.0 225.0 387.0 161.0 -77.0 
106.0 
106.0 342.0 
106.0 342.0 234.0 
106.0 342.0 234.0 -219.0 
106.0 342.0 234.0 -219.0 -53.0 
106.0 342.0 234.0 -219.0 -53.0 277.0 
106.0 342.0 234.0 -219.0 -53.0 277.0 500.0 
106.0 342.0 234.0 -219.0 -53.0 277.0 500.0 836.0 
106.0 342.0 234.0 -219.0 -53.0 277.0 500.0 836.0 235.0 
106.0 342.0 234.0 -219.0 -53.0 277.0 500.0 836.0 235.0 382.0 
106.0 342.0 234.0 -219.0 -53.0 277.0 500.0 836.0 235.0 382.0 156.0 
106.0 342.0 234.0 -219.0 -53.0 277.0 500.0 836.0 235.0 382.0 156.0 -82.0 
106.0 
106.0 352.0 
106.0 352.0 244.0 
106.0 352.0 244.0 -222.0 
106.0 352.0 244.0 -222.0 -62.0 
106.0 352.0 244.0 -222.0 -62.0 289.0 
106.0 352.0 244.0 -222.0 -62.0 289.0 500.0 
106.0 352.0 244.0 -222.0 -62.0 289.0 500.0 836.0 
106.0 352.0 244.0 -222.0 -62.0 289.0 500.0 836.0 235.0 
106.0 352.0 244.0 -222.0 -62.0 289.0 500.0 836.0 235.0 391.0 
106.0 352.0 244.0 -222.0 -62.0 289.0 500.0 836.0 235.0 391.0 166.0 
106.0 352.0 244.0 -222.0 -62.0 289.0 500.0 836.0 235.0 391.0 166.0 -72.0 
96.0 
96.0 352.0 
96.0 352.0 254.0 
96.0 352.0 254.0 -227.0 
96.0 352.0 254.0 -227.0 -67.0 
96.0 352.0 254.0 -227.0 -67.0 299.0 
96.0 352.0 254.0 -227.0 -67.0 299.0 500.0 
96.0 352.0 254.0 -227.0 -67.0 299.0 500.0 831.0 
96.0 352.0 254.0 -227.0 -67.0 299.0 500.0 831.0 230.0 
96.0 352.0 254.0 -227.0 -67.0 299.0 500.0 831.0 230.0 391.0 
96.0 352.0 254.0 -227.0 -67.0 299.0 500.0 831.0 230.0 391.0 166.0 
96.0 352.0 254.0 -227.0 -67.0 299.0 500.0 831.0 230.0 391.0 166.0 -72.0 
77.0 
77.0 342.0 
77.0 342.0 264.0 
77.0 342.0 264.0 -222.0 
77.0 342.0 264.0 -222.0 -77.0 
77.0 342.0 264.0 -222.0 -77.0 304.0 
77.0 342.0 264.0 -222.0 -77.0 304.0 504.0 
77.0 342.0 264.0 -222.0 -77.0 304.0 504.0 835.0 
77.0 342.0 264.0 -222.0 -77.0 304.0 504.0 835.0 235.0 
77.0 342.0 264.0 -222.0 -77.0 304.0 504.0 835.0 235.0 382.0 
77.0 342.0 264.0 -222.0 -77.0 304.0 504.0 835.0 235.0 382.0 161.0 
77.0 342.0 264.0 -222.0 -77.0 304.0 504.0 835.0 235.0 382.0 161.0 -72.0 
72.0 
72.0 342.0 
72.0 342.0 268.0 
72.0 342.0 268.0 -207.0 
72.0 342.0 268.0 -207.0 -92.0 
72.0 342.0 268.0 -207.0 -92.0 304.0 
72.0 342.0 268.0 -207.0 -92.0 304.0 514.0 
72.0 342.0 268.0 -207.0 -92.0 304.0 514.0 840.0 
72.0 342.0 268.0 -207.0 -92.0 304.0 514.0 840.0 244.0 
72.0 342.0 268.0 -207.0 -92.0 304.0 514.0 840.0 244.0 390.0 
72.0 342.0 268.0 -207.0 -92.0 304.0 514.0 840.0 244.0 390.0 166.0 
72.0 342.0 268.0 -207.0 -92.0 304.0 514.0 840.0 244.0 390.0 166.0 -68.0 
86.0 
86.0 347.0 
86.0 347.0 259.0 
86.0 347.0 259.0 -205.0 
86.0 347.0 259.0 -205.0 -97.0 
86.0 347.0 259.0 -205.0 -97.0 306.0 
86.0 347.0 259.0 -205.0 -97.0 306.0 514.0 
86.0 347.0 259.0 -205.0 -97.0 306.0 514.0 834.0 
86.0 347.0 259.0 -205.0 -97.0 306.0 514.0 834.0 235.0 
86.0 347.0 259.0 -205.0 -97.0 306.0 514.0 834.0 235.0 395.0 
86.0 347.0 259.0 -205.0 -97.0 306.0 514.0 834.0 235.0 395.0 171.0 
86.0 347.0 259.0 -205.0 -97.0 306.0 514.0 834.0 235.0 395.0 171.0 -68.0 
81.0 
81.0 347.0 
81.0 347.0 264.0 
81.0 347.0 264.0 -214.0 
81.0 347.0 264.0 -214.0 -84.0 
81.0 347.0 264.0 -214.0 -84.0 305.0 
81.0 347.0 264.0 -214.0 -84.0 305.0 519.0 
81.0 347.0 264.0 -214.0 -84.0 305.0 519.0 834.0 
81.0 347.0 264.0 -214.0 -84.0 305.0 519.0 834.0 230.0 
81.0 347.0 264.0 -214.0 -84.0 305.0 519.0 834.0 230.0 386.0 
81.0 347.0 264.0 -214.0 -84.0 305.0 519.0 834.0 230.0 386.0 156.0 
81.0 347.0 264.0 -214.0 -84.0 305.0 519.0 834.0 230.0 386.0 156.0 -80.0 
101.0 
101.0 357.0 
101.0 357.0 254.0 
101.0 357.0 254.0 -212.0 
101.0 357.0 254.0 -212.0 -89.0 
101.0 357.0 254.0 -212.0 -89.0 307.0 
101.0 357.0 254.0 -212.0 -89.0 307.0 519.0 
101.0 357.0 254.0 -212.0 -89.0 307.0 519.0 834.0 
101.0 357.0 254.0 -212.0 -89.0 307.0 519.0 834.0 225.0 
101.0 357.0 254.0 -212.0 -89.0 307.0 519.0 834.0 225.0 375.0 
101.0 357.0 254.0 -212.0 -89.0 307.0 519.0 834.0 225.0 375.0 147.0 
101.0 357.0 254.0 -212.0 -89.0 307.0 519.0 834.0 225.0 375.0 147.0 -90.0 
116.0 
116.0 361.0 
116.0 361.0 245.0 
116.0 361.0 245.0 -227.0 
116.0 361.0 245.0 -227.0 -75.0 
116.0 361.0 245.0 -227.0 -75.0 307.0 
116.0 361.0 245.0 -227.0 -75.0 307.0 524.0 
116.0 361.0 245.0 -227.0 -75.0 307.0 524.0 834.0 
116.0 361.0 245.0 -227.0 -75.0 307.0 524.0 834.0 230.0 
116.0 361.0 245.0 -227.0 -75.0 307.0 524.0 834.0 230.0 375.0 
116.0 361.0 245.0 -227.0 -75.0 307.0 524.0 834.0 230.0 375.0 147.0 
116.0 361.0 245.0 -227.0 -75.0 307.0 524.0 834.0 230.0 375.0 147.0 -90.0 
111.0 
111.0 376.0 
111.0 376.0 265.0 
111.0 376.0 265.0 -236.0 
111.0 376.0 265.0 -236.0 -62.0 
111.0 376.0 265.0 -236.0 -62.0 305.0 
111.0 376.0 265.0 -236.0 -62.0 305.0 518.0 
111.0 376.0 265.0 -236.0 -62.0 305.0 518.0 844.0 
111.0 376.0 265.0 -236.0 -62.0 305.0 518.0 844.0 240.0 
111.0 376.0 265.0 -236.0 -62.0 305.0 518.0 844.0 240.0 380.0 
111.0 376.0 265.0 -236.0 -62.0 305.0 518.0 844.0 240.0 380.0 156.0 
111.0 376.0 265.0 -236.0 -62.0 305.0 518.0 844.0 240.0 380.0 156.0 -80.0 
111.0 
111.0 376.0 
111.0 376.0 265.0 
111.0 376.0 265.0 -241.0 
111.0 376.0 265.0 -241.0 -75.0 
111.0 376.0 265.0 -241.0 -75.0 322.0 
111.0 376.0 265.0 -241.0 -75.0 322.0 513.0 
111.0 376.0 265.0 -241.0 -75.0 322.0 513.0 839.0 
111.0 376.0 265.0 -241.0 -75.0 322.0 513.0 839.0 240.0 
111.0 376.0 265.0 -241.0 -75.0 322.0 513.0 839.0 240.0 389.0 
111.0 376.0 265.0 -241.0 -75.0 322.0 513.0 839.0 240.0 389.0 166.0 
111.0 376.0 265.0 -241.0 -75.0 322.0 513.0 839.0 240.0 389.0 166.0 -75.0 
106.0 
106.0 376.0 
106.0 376.0 269.0 
106.0 376.0 269.0 -241.0 
106.0 376.0 269.0 -241.0 -75.0 
106.0 376.0 269.0 -241.0 -75.0 322.0 
106.0 376.0 269.0 -241.0 -75.0 322.0 503.0 
106.0 376.0 269.0 -241.0 -75.0 322.0 503.0 833.0 
106.0 376.0 269.0 -241.0 -75.0 322.0 503.0 833.0 240.0 
106.0 376.0 269.0 -241.0 -75.0 322.0 503.0 833.0 240.0 389.0 
106.0 376.0 269.0 -241.0 -75.0 322.0 503.0 833.0 240.0 389.0 166.0 
106.0 376.0 269.0 -241.0 -75.0 322.0 503.0 833.0 240.0 389.0 166.0 -75.0 
91.0 
91.0 381.0 
91.0 381.0 289.0 
91.0 381.0 289.0 -240.0 
91.0 381.0 289.0 -240.0 -79.0 
91.0 381.0 289.0 -240.0 -79.0 325.0 
91.0 381.0 289.0 -240.0 -79.0 325.0 503.0 
91.0 381.0 289.0 -240.0 -79.0 325.0 503.0 838.0 
91.0 381.0 289.0 -240.0 -79.0 325.0 503.0 838.0 240.0 
91.0 381.0 289.0 -240.0 -79.0 325.0 503.0 838.0 240.0 394.0 
91.0 381.0 289.0 -240.0 -79.0 325.0 503.0 838.0 240.0 394.0 166.0 
91.0 381.0 289.0 -240.0 -79.0 325.0 503.0 838.0 240.0 394.0 166.0 -75.0 
96.0 
96.0 386.0 
96.0 386.0 289.0 
96.0 386.0 289.0 -235.0 
96.0 386.0 289.0 -235.0 -97.0 
96.0 386.0 289.0 -235.0 -97.0 337.0 
96.0 386.0 289.0 -235.0 -97.0 337.0 503.0 
96.0 386.0 289.0 -235.0 -97.0 337.0 503.0 838.0 
96.0 386.0 289.0 -235.0 -97.0 337.0 503.0 838.0 235.0 
96.0 386.0 289.0 -235.0 -97.0 337.0 503.0 838.0 235.0 394.0 
96.0 386.0 289.0 -235.0 -97.0 337.0 503.0 838.0 235.0 394.0 171.0 
96.0 386.0 289.0 -235.0 -97.0 337.0 503.0 838.0 235.0 394.0 171.0 -69.0 
96.0 
96.0 386.0 
96.0 386.0 289.0 
96.0 386.0 289.0 -240.0 
96.0 386.0 289.0 -240.0 -94.0 
96.0 386.0 289.0 -240.0 -94.0 339.0 
96.0 386.0 289.0 -240.0 -94.0 339.0 513.0 
96.0 386.0 289.0 -240.0 -94.0 339.0 513.0 842.0 
96.0 386.0 289.0 -240.0 -94.0 339.0 513.0 842.0 235.0 
96.0 386.0 289.0 -240.0 -94.0 339.0 513.0 842.0 235.0 394.0 
96.0 386.0 289.0 -240.0 -94.0 339.0 513.0 842.0 235.0 394.0 171.0 
96.0 386.0 289.0 -240.0 -94.0 339.0 513.0 842.0 235.0 394.0 171.0 -69.0 
111.0 
111.0 400.0 
111.0 400.0 289.0 
111.0 400.0 289.0 -240.0 
111.0 400.0 289.0 -240.0 -94.0 
111.0 400.0 289.0 -240.0 -94.0 339.0 
111.0 400.0 289.0 -240.0 -94.0 339.0 503.0 
111.0 400.0 289.0 -240.0 -94.0 339.0 503.0 837.0 
111.0 400.0 289.0 -240.0 -94.0 339.0 503.0 837.0 230.0 
111.0 400.0 289.0 -240.0 -94.0 339.0 503.0 837.0 230.0 399.0 
111.0 400.0 289.0 -240.0 -94.0 339.0 503.0 837.0 230.0 399.0 181.0 
111.0 400.0 289.0 -240.0 -94.0 339.0 503.0 837.0 230.0 399.0 181.0 -65.0 
135.0 
135.0 410.0 
135.0 410.0 274.0 
135.0 410.0 274.0 -254.0 
135.0 410.0 274.0 -254.0 -87.0 
135.0 410.0 274.0 -254.0 -87.0 347.0 
135.0 410.0 274.0 -254.0 -87.0 347.0 489.0 
135.0 410.0 274.0 -254.0 -87.0 347.0 489.0 831.0 
135.0 410.0 274.0 -254.0 -87.0 347.0 489.0 831.0 230.0 
135.0 410.0 274.0 -254.0 -87.0 347.0 489.0 831.0 230.0 389.0 
135.0 410.0 274.0 -254.0 -87.0 347.0 489.0 831.0 230.0 389.0 171.0 
135.0 410.0 274.0 -254.0 -87.0 347.0 489.0 831.0 230.0 389.0 171.0 -65.0 
125.0 
125.0 416.0 
125.0 416.0 289.0 
125.0 416.0 289.0 -271.0 
125.0 416.0 289.0 -271.0 -67.0 
125.0 416.0 289.0 -271.0 -67.0 344.0 
125.0 416.0 289.0 -271.0 -67.0 344.0 479.0 
125.0 416.0 289.0 -271.0 -67.0 344.0 479.0 831.0 
125.0 416.0 289.0 -271.0 -67.0 344.0 479.0 831.0 240.0 
125.0 416.0 289.0 -271.0 -67.0 344.0 479.0 831.0 240.0 388.0 
125.0 416.0 289.0 -271.0 -67.0 344.0 479.0 831.0 240.0 388.0 171.0 
125.0 416.0 289.0 -271.0 -67.0 344.0 479.0 831.0 240.0 388.0 171.0 -69.0 
111.0 
111.0 406.0 
111.0 406.0 294.0 
111.0 406.0 294.0 -269.0 
111.0 406.0 294.0 -269.0 -79.0 
111.0 406.0 294.0 -269.0 -79.0 354.0 
111.0 406.0 294.0 -269.0 -79.0 354.0 469.0 
111.0 406.0 294.0 -269.0 -79.0 354.0 469.0 826.0 
111.0 406.0 294.0 -269.0 -79.0 354.0 469.0 826.0 235.0 
111.0 406.0 294.0 -269.0 -79.0 354.0 469.0 826.0 235.0 398.0 
111.0 406.0 294.0 -269.0 -79.0 354.0 469.0 826.0 235.0 398.0 181.0 
111.0 406.0 294.0 -269.0 -79.0 354.0 469.0 826.0 235.0 398.0 181.0 -60.0 
116.0 
116.0 382.0 
116.0 382.0 265.0 
116.0 382.0 265.0 -257.0 
116.0 382.0 265.0 -257.0 -89.0 
116.0 382.0 265.0 -257.0 -89.0 351.0 
116.0 382.0 265.0 -257.0 -89.0 351.0 469.0 
116.0 382.0 265.0 -257.0 -89.0 351.0 469.0 826.0 
116.0 382.0 265.0 -257.0 -89.0 351.0 469.0 826.0 235.0 
116.0 382.0 265.0 -257.0 -89.0 351.0 469.0 826.0 235.0 393.0 
116.0 382.0 265.0 -257.0 -89.0 351.0 469.0 826.0 235.0 393.0 171.0 
116.0 382.0 265.0 -257.0 -89.0 351.0 469.0 826.0 235.0 393.0 171.0 -65.0 
106.0 
106.0 372.0 
106.0 372.0 265.0 
106.0 372.0 265.0 -247.0 
106.0 372.0 265.0 -247.0 -72.0 
106.0 372.0 265.0 -247.0 -72.0 326.0 
106.0 372.0 265.0 -247.0 -72.0 326.0 469.0 
106.0 372.0 265.0 -247.0 -72.0 326.0 469.0 831.0 
106.0 372.0 265.0 -247.0 -72.0 326.0 469.0 831.0 240.0 
106.0 372.0 265.0 -247.0 -72.0 326.0 469.0 831.0 240.0 398.0 
106.0 372.0 265.0 -247.0 -72.0 326.0 469.0 831.0 240.0 398.0 177.0 
106.0 372.0 265.0 -247.0 -72.0 326.0 469.0 831.0 240.0 398.0 177.0 -53.0 
116.0 
116.0 387.0 
116.0 387.0 269.0 
116.0 387.0 269.0 -237.0 
116.0 387.0 269.0 -237.0 -77.0 
116.0 387.0 269.0 -237.0 -77.0 321.0 
116.0 387.0 269.0 -237.0 -77.0 321.0 469.0 
116.0 387.0 269.0 -237.0 -77.0 321.0 469.0 831.0 
116.0 387.0 269.0 -237.0 -77.0 321.0 469.0 831.0 235.0 
116.0 387.0 269.0 -237.0 -77.0 321.0 469.0 831.0 235.0 408.0 
116.0 387.0 269.0 -237.0 -77.0 321.0 469.0 831.0 235.0 408.0 187.0 
116.0 387.0 269.0 -237.0 -77.0 321.0 469.0 831.0 235.0 408.0 187.0 -48.0 
125.0 
125.0 397.0 
125.0 397.0 269.0 
125.0 397.0 269.0 -249.0 
125.0 397.0 269.0 -249.0 -75.0 
125.0 397.0 269.0 -249.0 -75.0 330.0 
125.0 397.0 269.0 -249.0 -75.0 330.0 469.0 
125.0 397.0 269.0 -249.0 -75.0 330.0 469.0 830.0 
125.0 397.0 269.0 -249.0 -75.0 330.0 469.0 830.0 235.0 
125.0 397.0 269.0 -249.0 -75.0 330.0 469.0 830.0 235.0 403.0 
125.0 397.0 269.0 -249.0 -75.0 330.0 469.0 830.0 235.0 403.0 182.0 
125.0 397.0 269.0 -249.0 -75.0 330.0 469.0 830.0 235.0 403.0 182.0 -53.0 
135.0 
135.0 421.0 
135.0 421.0 284.0 
135.0 421.0 284.0 -260.0 
135.0 421.0 284.0 -260.0 -70.0 
135.0 421.0 284.0 -260.0 -70.0 335.0 
135.0 421.0 284.0 -260.0 -70.0 335.0 464.0 
135.0 421.0 284.0 -260.0 -70.0 335.0 464.0 830.0 
135.0 421.0 284.0 -260.0 -70.0 335.0 464.0 830.0 235.0 
135.0 421.0 284.0 -260.0 -70.0 335.0 464.0 830.0 235.0 402.0 
135.0 421.0 284.0 -260.0 -70.0 335.0 464.0 830.0 235.0 402.0 182.0 
135.0 421.0 284.0 -260.0 -70.0 335.0 464.0 830.0 235.0 402.0 182.0 -58.0 
145.0 
145.0 436.0 
145.0 436.0 290.0 
145.0 436.0 290.0 -277.0 
145.0 436.0 290.0 -277.0 -72.0 
145.0 436.0 290.0 -277.0 -72.0 355.0 
145.0 436.0 290.0 -277.0 -72.0 355.0 459.0 
145.0 436.0 290.0 -277.0 -72.0 355.0 459.0 835.0 
145.0 436.0 290.0 -277.0 -72.0 355.0 459.0 835.0 241.0 
145.0 436.0 290.0 -277.0 -72.0 355.0 459.0 835.0 241.0 402.0 
145.0 436.0 290.0 -277.0 -72.0 355.0 459.0 835.0 241.0 402.0 182.0 
145.0 436.0 290.0 -277.0 -72.0 355.0 459.0 835.0 241.0 402.0 182.0 -58.0 
140.0 
140.0 421.0 
140.0 421.0 280.0 
140.0 421.0 280.0 -290.0 
140.0 421.0 280.0 -290.0 -70.0 
140.0 421.0 280.0 -290.0 -70.0 365.0 
140.0 421.0 280.0 -290.0 -70.0 365.0 454.0 
140.0 421.0 280.0 -290.0 -70.0 365.0 454.0 840.0 
140.0 421.0 280.0 -290.0 -70.0 365.0 454.0 840.0 250.0 
140.0 421.0 280.0 -290.0 -70.0 365.0 454.0 840.0 250.0 407.0 
140.0 421.0 280.0 -290.0 -70.0 365.0 454.0 840.0 250.0 407.0 187.0 
140.0 421.0 280.0 -290.0 -70.0 365.0 454.0 840.0 250.0 407.0 187.0 -53.0 
140.0 
140.0 406.0 
140.0 406.0 266.0 
140.0 406.0 266.0 -280.0 
140.0 406.0 266.0 -280.0 -67.0 
140.0 406.0 266.0 -280.0 -67.0 352.0 
140.0 406.0 266.0 -280.0 -67.0 352.0 449.0 
140.0 406.0 266.0 -280.0 -67.0 352.0 449.0 834.0 
140.0 406.0 266.0 -280.0 -67.0 352.0 449.0 834.0 250.0 
140.0 406.0 266.0 -280.0 -67.0 352.0 449.0 834.0 250.0 417.0 
140.0 406.0 266.0 -280.0 -67.0 352.0 449.0 834.0 250.0 417.0 196.0 
140.0 406.0 266.0 -280.0 -67.0 352.0 449.0 834.0 250.0 417.0 196.0 -48.0 
135.0 
135.0 387.0 
135.0 387.0 251.0 
135.0 387.0 251.0 -272.0 
135.0 387.0 251.0 -272.0 -60.0 
135.0 387.0 251.0 -272.0 -60.0 338.0 
135.0 387.0 251.0 -272.0 -60.0 338.0 434.0 
135.0 387.0 251.0 -272.0 -60.0 338.0 434.0 813.0 
135.0 387.0 251.0 -272.0 -60.0 338.0 434.0 813.0 231.0 
135.0 387.0 251.0 -272.0 -60.0 338.0 434.0 813.0 231.0 416.0 
135.0 387.0 251.0 -272.0 -60.0 338.0 434.0 813.0 231.0 416.0 196.0 
135.0 387.0 251.0 -272.0 -60.0 338.0 434.0 813.0 231.0 416.0 196.0 -47.0 
116.0 
116.0 362.0 
116.0 362.0 246.0 
116.0 362.0 246.0 -260.0 
116.0 362.0 246.0 -260.0 -55.0 
116.0 362.0 246.0 -260.0 -55.0 321.0 
116.0 362.0 246.0 -260.0 -55.0 321.0 434.0 
116.0 362.0 246.0 -260.0 -55.0 321.0 434.0 808.0 
116.0 362.0 246.0 -260.0 -55.0 321.0 434.0 808.0 231.0 
116.0 362.0 246.0 -260.0 -55.0 321.0 434.0 808.0 231.0 396.0 
116.0 362.0 246.0 -260.0 -55.0 321.0 434.0 808.0 231.0 396.0 187.0 
116.0 362.0 246.0 -260.0 -55.0 321.0 434.0 808.0 231.0 396.0 187.0 -52.0 
106.0 
106.0 367.0 
106.0 367.0 261.0 
106.0 367.0 261.0 -238.0 
106.0 367.0 261.0 -238.0 -62.0 
106.0 367.0 261.0 -238.0 -62.0 306.0 
106.0 367.0 261.0 -238.0 -62.0 306.0 429.0 
106.0 367.0 261.0 -238.0 -62.0 306.0 429.0 803.0 
106.0 367.0 261.0 -238.0 -62.0 306.0 429.0 803.0 221.0 
106.0 367.0 261.0 -238.0 -62.0 306.0 429.0 803.0 221.0 396.0 
106.0 367.0 261.0 -238.0 -62.0 306.0 429.0 803.0 221.0 396.0 182.0 
106.0 367.0 261.0 -238.0 -62.0 306.0 429.0 803.0 221.0 396.0 182.0 -57.0 
101.0 
101.0 387.0 
101.0 387.0 285.0 
101.0 387.0 285.0 -236.0 
101.0 387.0 285.0 -236.0 -75.0 
101.0 387.0 285.0 -236.0 -75.0 316.0 
101.0 387.0 285.0 -236.0 -75.0 316.0 434.0 
101.0 387.0 285.0 -236.0 -75.0 316.0 434.0 803.0 
101.0 387.0 285.0 -236.0 -75.0 316.0 434.0 803.0 216.0 
101.0 387.0 285.0 -236.0 -75.0 316.0 434.0 803.0 216.0 386.0 
101.0 387.0 285.0 -236.0 -75.0 316.0 434.0 803.0 216.0 386.0 172.0 
101.0 387.0 285.0 -236.0 -75.0 316.0 434.0 803.0 216.0 386.0 172.0 -62.0 
130.0 
130.0 393.0 
130.0 393.0 261.0 
130.0 393.0 261.0 -243.0 
130.0 393.0 261.0 -243.0 -89.0 
130.0 393.0 261.0 -243.0 -89.0 338.0 
130.0 393.0 261.0 -243.0 -89.0 338.0 438.0 
130.0 393.0 261.0 -243.0 -89.0 338.0 438.0 818.0 
130.0 393.0 261.0 -243.0 -89.0 338.0 438.0 818.0 231.0 
130.0 393.0 261.0 -243.0 -89.0 338.0 438.0 818.0 231.0 386.0 
130.0 393.0 261.0 -243.0 -89.0 338.0 438.0 818.0 231.0 386.0 172.0 
130.0 393.0 261.0 -243.0 -89.0 338.0 438.0 818.0 231.0 386.0 172.0 -62.0 
160.0 
160.0 422.0 
160.0 422.0 261.0 
160.0 422.0 261.0 -260.0 
160.0 422.0 261.0 -260.0 -62.0 
160.0 422.0 261.0 -260.0 -62.0 328.0 
160.0 422.0 261.0 -260.0 -62.0 328.0 428.0 
160.0 422.0 261.0 -260.0 -62.0 328.0 428.0 808.0 
160.0 422.0 261.0 -260.0 -62.0 328.0 428.0 808.0 226.0 
160.0 422.0 261.0 -260.0 -62.0 328.0 428.0 808.0 226.0 401.0 
160.0 422.0 261.0 -260.0 -62.0 328.0 428.0 808.0 226.0 401.0 187.0 
160.0 422.0 261.0 -260.0 -62.0 328.0 428.0 808.0 226.0 401.0 187.0 -52.0 
164.0 
164.0 422.0 
164.0 422.0 256.0 
164.0 422.0 256.0 -290.0 
164.0 422.0 256.0 -290.0 -48.0 
164.0 422.0 256.0 -290.0 -48.0 343.0 
164.0 422.0 256.0 -290.0 -48.0 343.0 414.0 
164.0 422.0 256.0 -290.0 -48.0 343.0 414.0 807.0 
164.0 422.0 256.0 -290.0 -48.0 343.0 414.0 807.0 231.0 
164.0 422.0 256.0 -290.0 -48.0 343.0 414.0 807.0 231.0 401.0 
164.0 422.0 256.0 -290.0 -48.0 343.0 414.0 807.0 231.0 401.0 187.0 
164.0 422.0 256.0 -290.0 -48.0 343.0 414.0 807.0 231.0 401.0 187.0 -52.0 
160.0 
160.0 402.0 
160.0 402.0 241.0 
160.0 402.0 241.0 -292.0 
160.0 402.0 241.0 -292.0 -43.0 
160.0 402.0 241.0 -292.0 -43.0 340.0 
160.0 402.0 241.0 -292.0 -43.0 340.0 409.0 
160.0 402.0 241.0 -292.0 -43.0 340.0 409.0 807.0 
160.0 402.0 241.0 -292.0 -43.0 340.0 409.0 807.0 231.0 
160.0 402.0 241.0 -292.0 -43.0 340.0 409.0 807.0 231.0 406.0 
160.0 402.0 241.0 -292.0 -43.0 340.0 409.0 807.0 231.0 406.0 197.0 
160.0 402.0 241.0 -292.0 -43.0 340.0 409.0 807.0 231.0 406.0 197.0 -45.0 
150.0 
150.0 398.0 
150.0 398.0 246.0 
150.0 398.0 246.0 -280.0 
150.0 398.0 246.0 -280.0 -39.0 
150.0 398.0 246.0 -280.0 -39.0 323.0 
150.0 398.0 246.0 -280.0 -39.0 323.0 414.0 
150.0 398.0 246.0 -280.0 -39.0 323.0 414.0 802.0 
150.0 398.0 246.0 -280.0 -39.0 323.0 414.0 802.0 231.0 
150.0 398.0 246.0 -280.0 -39.0 323.0 414.0 802.0 231.0 411.0 
150.0 398.0 246.0 -280.0 -39.0 323.0 414.0 802.0 231.0 411.0 202.0 
150.0 398.0 246.0 -280.0 -39.0 323.0 414.0 802.0 231.0 411.0 202.0 -30.0 
150.0 
150.0 398.0 
150.0 398.0 246.0 
150.0 398.0 246.0 -272.0 
150.0 398.0 246.0 -272.0 -46.0 
150.0 398.0 246.0 -272.0 -46.0 323.0 
150.0 398.0 246.0 -272.0 -46.0 323.0 423.0 
150.0 398.0 246.0 -272.0 -46.0 323.0 423.0 817.0 
150.0 398.0 246.0 -272.0 -46.0 323.0 423.0 817.0 241.0 
150.0 398.0 246.0 -272.0 -46.0 323.0 423.0 817.0 241.0 405.0 
150.0 398.0 246.0 -272.0 -46.0 323.0 423.0 817.0 241.0 405.0 193.0 
150.0 398.0 246.0 -272.0 -46.0 323.0 423.0 817.0 241.0 405.0 193.0 -40.0 
150.0 
150.0 383.0 
150.0 383.0 231.0 
150.0 383.0 231.0 -272.0 
150.0 383.0 231.0 -272.0 -46.0 
150.0 383.0 231.0 -272.0 -46.0 323.0 
150.0 383.0 231.0 -272.0 -46.0 323.0 443.0 
150.0 383.0 231.0 -272.0 -46.0 323.0 443.0 840.0 
150.0 383.0 231.0 -272.0 -46.0 323.0 443.0 840.0 260.0 
150.0 383.0 231.0 -272.0 -46.0 323.0 443.0 840.0 260.0 410.0 
150.0 383.0 231.0 -272.0 -46.0 323.0 443.0 840.0 260.0 410.0 197.0 
150.0 383.0 231.0 -272.0 -46.0 323.0 443.0 840.0 260.0 410.0 197.0 -35.0 
135.0 
135.0 379.0 
135.0 379.0 241.0 
135.0 379.0 241.0 -265.0 
135.0 379.0 241.0 -265.0 -39.0 
135.0 379.0 241.0 -265.0 -39.0 308.0 
135.0 379.0 241.0 -265.0 -39.0 308.0 448.0 
135.0 379.0 241.0 -265.0 -39.0 308.0 448.0 844.0 
135.0 379.0 241.0 -265.0 -39.0 308.0 448.0 844.0 260.0 
135.0 379.0 241.0 -265.0 -39.0 308.0 448.0 844.0 260.0 434.0 
135.0 379.0 241.0 -265.0 -39.0 308.0 448.0 844.0 260.0 434.0 212.0 
135.0 379.0 241.0 -265.0 -39.0 308.0 448.0 844.0 260.0 434.0 212.0 -25.0 
135.0 
135.0 384.0 
135.0 384.0 246.0 
135.0 384.0 246.0 -255.0 
135.0 384.0 246.0 -255.0 -51.0 
135.0 384.0 246.0 -255.0 -51.0 311.0 
135.0 384.0 246.0 -255.0 -51.0 311.0 457.0 
135.0 384.0 246.0 -255.0 -51.0 311.0 457.0 854.0 
135.0 384.0 246.0 -255.0 -51.0 311.0 457.0 854.0 270.0 
135.0 384.0 246.0 -255.0 -51.0 311.0 457.0 854.0 270.0 429.0 
135.0 384.0 246.0 -255.0 -51.0 311.0 457.0 854.0 270.0 429.0 207.0 
135.0 384.0 246.0 -255.0 -51.0 311.0 457.0 854.0 270.0 429.0 207.0 -35.0 
140.0 
140.0 394.0 
140.0 394.0 251.0 
140.0 394.0 251.0 -258.0 
140.0 394.0 251.0 -258.0 -54.0 
140.0 394.0 251.0 -258.0 -54.0 316.0 
140.0 394.0 251.0 -258.0 -54.0 316.0 453.0 
140.0 394.0 251.0 -258.0 -54.0 316.0 453.0 849.0 
140.0 394.0 251.0 -258.0 -54.0 316.0 453.0 849.0 260.0 
140.0 394.0 251.0 -258.0 -54.0 316.0 453.0 849.0 260.0 439.0 
140.0 394.0 251.0 -258.0 -54.0 316.0 453.0 849.0 260.0 439.0 212.0 
140.0 394.0 251.0 -258.0 -54.0 316.0 453.0 849.0 260.0 439.0 212.0 -30.0 
164.0 
164.0 389.0 
164.0 389.0 222.0 
164.0 389.0 222.0 -265.0 
164.0 389.0 222.0 -265.0 -54.0 
164.0 389.0 222.0 -265.0 -54.0 323.0 
164.0 389.0 222.0 -265.0 -54.0 323.0 442.0 
164.0 389.0 222.0 -265.0 -54.0 323.0 442.0 839.0 
164.0 389.0 222.0 -265.0 -54.0 323.0 442.0 839.0 255.0 
164.0 389.0 222.0 -265.0 -54.0 323.0 442.0 839.0 255.0 434.0 
164.0 389.0 222.0 -265.0 -54.0 323.0 442.0 839.0 255.0 434.0 213.0 
164.0 389.0 222.0 -265.0 -54.0 323.0 442.0 839.0 255.0 434.0 213.0 -34.0 
160.0 
160.0 394.0 
160.0 394.0 231.0 
160.0 394.0 231.0 -275.0 
160.0 394.0 231.0 -275.0 -27.0 
160.0 394.0 231.0 -275.0 -27.0 307.0 
160.0 394.0 231.0 -275.0 -27.0 307.0 437.0 
160.0 394.0 231.0 -275.0 -27.0 307.0 437.0 835.0 
160.0 394.0 231.0 -275.0 -27.0 307.0 437.0 835.0 255.0 
160.0 394.0 231.0 -275.0 -27.0 307.0 437.0 835.0 255.0 424.0 
160.0 394.0 231.0 -275.0 -27.0 307.0 437.0 835.0 255.0 424.0 203.0 
160.0 394.0 231.0 -275.0 -27.0 307.0 437.0 835.0 255.0 424.0 203.0 -44.0 
150.0 
150.0 360.0 
150.0 360.0 207.0 
150.0 360.0 207.0 -275.0 
150.0 360.0 207.0 -275.0 -34.0 
150.0 360.0 207.0 -275.0 -34.0 314.0 
150.0 360.0 207.0 -275.0 -34.0 314.0 442.0 
150.0 360.0 207.0 -275.0 -34.0 314.0 442.0 839.0 
150.0 360.0 207.0 -275.0 -34.0 314.0 442.0 839.0 260.0 
150.0 360.0 207.0 -275.0 -34.0 314.0 442.0 839.0 260.0 419.0 
150.0 360.0 207.0 -275.0 -34.0 314.0 442.0 839.0 260.0 419.0 198.0 
150.0 360.0 207.0 -275.0 -34.0 314.0 442.0 839.0 260.0 419.0 198.0 -44.0 
135.0 
135.0 335.0 
135.0 335.0 197.0 
135.0 335.0 197.0 -253.0 
135.0 335.0 197.0 -253.0 -27.0 
135.0 335.0 197.0 -253.0 -27.0 285.0 
135.0 335.0 197.0 -253.0 -27.0 285.0 437.0 
135.0 335.0 197.0 -253.0 -27.0 285.0 437.0 824.0 
135.0 335.0 197.0 -253.0 -27.0 285.0 437.0 824.0 245.0 
135.0 335.0 197.0 -253.0 -27.0 285.0 437.0 824.0 245.0 428.0 
135.0 335.0 197.0 -253.0 -27.0 285.0 437.0 824.0 245.0 428.0 203.0 
135.0 335.0 197.0 -253.0 -27.0 285.0 437.0 824.0 245.0 428.0 203.0 -39.0 
121.0 
121.0 330.0 
121.0 330.0 207.0 
121.0 330.0 207.0 -233.0 
121.0 330.0 207.0 -233.0 -29.0 
121.0 330.0 207.0 -233.0 -29.0 268.0 
121.0 330.0 207.0 -233.0 -29.0 268.0 447.0 
121.0 330.0 207.0 -233.0 -29.0 268.0 447.0 834.0 
121.0 330.0 207.0 -233.0 -29.0 268.0 447.0 834.0 245.0 
121.0 330.0 207.0 -233.0 -29.0 268.0 447.0 834.0 245.0 414.0 
121.0 330.0 207.0 -233.0 -29.0 268.0 447.0 834.0 245.0 414.0 194.0 
121.0 330.0 207.0 -233.0 -29.0 268.0 447.0 834.0 245.0 414.0 194.0 -49.0 
116.0 
116.0 325.0 
116.0 325.0 207.0 
116.0 325.0 207.0 -224.0 
116.0 325.0 207.0 -224.0 -41.0 
116.0 325.0 207.0 -224.0 -41.0 270.0 
116.0 325.0 207.0 -224.0 -41.0 270.0 447.0 
116.0 325.0 207.0 -224.0 -41.0 270.0 447.0 824.0 
116.0 325.0 207.0 -224.0 -41.0 270.0 447.0 824.0 241.0 
116.0 325.0 207.0 -224.0 -41.0 270.0 447.0 824.0 241.0 413.0 
116.0 325.0 207.0 -224.0 -41.0 270.0 447.0 824.0 241.0 413.0 194.0 
116.0 325.0 207.0 -224.0 -41.0 270.0 447.0 824.0 241.0 413.0 194.0 -49.0 
116.0 
116.0 340.0 
116.0 340.0 222.0 
116.0 340.0 222.0 -220.0 
116.0 340.0 222.0 -220.0 -44.0 
116.0 340.0 222.0 -220.0 -44.0 268.0 
116.0 340.0 222.0 -220.0 -44.0 268.0 447.0 
116.0 340.0 222.0 -220.0 -44.0 268.0 447.0 814.0 
116.0 340.0 222.0 -220.0 -44.0 268.0 447.0 814.0 231.0 
116.0 340.0 222.0 -220.0 -44.0 268.0 447.0 814.0 231.0 408.0 
116.0 340.0 222.0 -220.0 -44.0 268.0 447.0 814.0 231.0 408.0 189.0 
116.0 340.0 222.0 -220.0 -44.0 268.0 447.0 814.0 231.0 408.0 189.0 -61.0 
101.0 
101.0 345.0 
101.0 345.0 242.0 
101.0 345.0 242.0 -227.0 
101.0 345.0 242.0 -227.0 -51.0 
101.0 345.0 242.0 -227.0 -51.0 283.0 
101.0 345.0 242.0 -227.0 -51.0 283.0 452.0 
101.0 345.0 242.0 -227.0 -51.0 283.0 452.0 823.0 
101.0 345.0 242.0 -227.0 -51.0 283.0 452.0 823.0 245.0 
101.0 345.0 242.0 -227.0 -51.0 283.0 452.0 823.0 245.0 403.0 
101.0 345.0 242.0 -227.0 -51.0 283.0 452.0 823.0 245.0 403.0 179.0 
101.0 345.0 242.0 -227.0 -51.0 283.0 452.0 823.0 245.0 403.0 179.0 -66.0 
86.0 
86.0 330.0 
86.0 330.0 242.0 
86.0 330.0 242.0 -222.0 
86.0 330.0 242.0 -222.0 -68.0 
86.0 330.0 242.0 -222.0 -68.0 295.0 
86.0 330.0 242.0 -222.0 -68.0 295.0 442.0 
86.0 330.0 242.0 -222.0 -68.0 295.0 442.0 818.0 
86.0 330.0 242.0 -222.0 -68.0 295.0 442.0 818.0 236.0 
86.0 330.0 242.0 -222.0 -68.0 295.0 442.0 818.0 236.0 418.0 
86.0 330.0 242.0 -222.0 -68.0 295.0 442.0 818.0 236.0 418.0 194.0 
86.0 330.0 242.0 -222.0 -68.0 295.0 442.0 818.0 236.0 418.0 194.0 -57.0 
96.0 
96.0 335.0 
96.0 335.0 237.0 
96.0 335.0 237.0 -208.0 
96.0 335.0 237.0 -208.0 -76.0 
96.0 335.0 237.0 -208.0 -76.0 289.0 
96.0 335.0 237.0 -208.0 -76.0 289.0 456.0 
96.0 335.0 237.0 -208.0 -76.0 289.0 456.0 822.0 
96.0 335.0 237.0 -208.0 -76.0 289.0 456.0 822.0 241.0 
96.0 335.0 237.0 -208.0 -76.0 289.0 456.0 822.0 241.0 408.0 
96.0 335.0 237.0 -208.0 -76.0 289.0 456.0 822.0 241.0 408.0 179.0 
96.0 335.0 237.0 -208.0 -76.0 289.0 456.0 822.0 241.0 408.0 179.0 -76.0 
96.0 
96.0 335.0 
96.0 335.0 237.0 
96.0 335.0 237.0 -215.0 
96.0 335.0 237.0 -215.0 -68.0 
96.0 335.0 237.0 -215.0 -68.0 289.0 
96.0 335.0 237.0 -215.0 -68.0 289.0 466.0 
96.0 335.0 237.0 -215.0 -68.0 289.0 466.0 822.0 
96.0 335.0 237.0 -215.0 -68.0 289.0 466.0 822.0 226.0 
96.0 335.0 237.0 -215.0 -68.0 289.0 466.0 822.0 226.0 403.0 
96.0 335.0 237.0 -215.0 -68.0 289.0 466.0 822.0 226.0 403.0 174.0 
96.0 335.0 237.0 -215.0 -68.0 289.0 466.0 822.0 226.0 403.0 174.0 -76.0 
86.0 
86.0 291.0 
86.0 291.0 203.0 
86.0 291.0 203.0 -215.0 
86.0 291.0 203.0 -215.0 -68.0 
86.0 291.0 203.0 -215.0 -68.0 289.0 
86.0 291.0 203.0 -215.0 -68.0 289.0 461.0 
86.0 291.0 203.0 -215.0 -68.0 289.0 461.0 812.0 
86.0 291.0 203.0 -215.0 -68.0 289.0 461.0 812.0 211.0 
86.0 291.0 203.0 -215.0 -68.0 289.0 461.0 812.0 211.0 383.0 
86.0 291.0 203.0 -215.0 -68.0 289.0 461.0 812.0 211.0 383.0 159.0 
86.0 291.0 203.0 -215.0 -68.0 289.0 461.0 812.0 211.0 383.0 159.0 -86.0 
86.0 
86.0 272.0 
86.0 272.0 184.0 
86.0 272.0 184.0 -188.0 
86.0 272.0 184.0 -188.0 -56.0 
86.0 272.0 184.0 -188.0 -56.0 249.0 
86.0 272.0 184.0 -188.0 -56.0 249.0 471.0 
86.0 272.0 184.0 -188.0 -56.0 249.0 471.0 832.0 
86.0 272.0 184.0 -188.0 -56.0 249.0 471.0 832.0 231.0 
86.0 272.0 184.0 -188.0 -56.0 249.0 471.0 832.0 231.0 369.0 
86.0 272.0 184.0 -188.0 -56.0 249.0 471.0 832.0 231.0 369.0 150.0 
86.0 272.0 184.0 -188.0 -56.0 249.0 471.0 832.0 231.0 369.0 150.0 -96.0 
77.0 
77.0 281.0 
77.0 281.0 203.0 
77.0 281.0 203.0 -178.0 
77.0 281.0 203.0 -178.0 -46.0 
77.0 281.0 203.0 -178.0 -46.0 230.0 
77.0 281.0 203.0 -178.0 -46.0 230.0 481.0 
77.0 281.0 203.0 -178.0 -46.0 230.0 481.0 832.0 
77.0 281.0 203.0 -178.0 -46.0 230.0 481.0 832.0 231.0 
77.0 281.0 203.0 -178.0 -46.0 230.0 481.0 832.0 231.0 388.0 
77.0 281.0 203.0 -178.0 -46.0 230.0 481.0 832.0 231.0 388.0 164.0 
77.0 281.0 203.0 -178.0 -46.0 230.0 481.0 832.0 231.0 388.0 164.0 -85.0 
86.0 
86.0 291.0 
86.0 291.0 203.0 
86.0 291.0 203.0 -178.0 
86.0 291.0 203.0 -178.0 -61.0 
86.0 291.0 203.0 -178.0 -61.0 245.0 
86.0 291.0 203.0 -178.0 -61.0 245.0 481.0 
86.0 291.0 203.0 -178.0 -61.0 245.0 481.0 826.0 
86.0 291.0 203.0 -178.0 -61.0 245.0 481.0 826.0 226.0 
86.0 291.0 203.0 -178.0 -61.0 245.0 481.0 826.0 226.0 388.0 
86.0 291.0 203.0 -178.0 -61.0 245.0 481.0 826.0 226.0 388.0 159.0 
86.0 291.0 203.0 -178.0 -61.0 245.0 481.0 826.0 226.0 388.0 159.0 -90.0 
96.0 
96.0 281.0 
96.0 281.0 185.0 
96.0 281.0 185.0 -188.0 
96.0 281.0 185.0 -188.0 -56.0 
96.0 281.0 185.0 -188.0 -56.0 249.0 
96.0 281.0 185.0 -188.0 -56.0 249.0 476.0 
96.0 281.0 185.0 -188.0 -56.0 249.0 476.0 826.0 
96.0 281.0 185.0 -188.0 -56.0 249.0 476.0 826.0 221.0 
96.0 281.0 185.0 -188.0 -56.0 249.0 476.0 826.0 221.0 382.0 
96.0 281.0 185.0 -188.0 -56.0 249.0 476.0 826.0 221.0 382.0 150.0 
96.0 281.0 185.0 -188.0 -56.0 249.0 476.0 826.0 221.0 382.0 150.0 -95.0 
106.0 
106.0 286.0 
106.0 286.0 180.0 
106.0 286.0 180.0 -188.0 
106.0 286.0 180.0 -188.0 -41.0 
106.0 286.0 180.0 -188.0 -41.0 235.0 
106.0 286.0 180.0 -188.0 -41.0 235.0 475.0 
106.0 286.0 180.0 -188.0 -41.0 235.0 475.0 821.0 
106.0 286.0 180.0 -188.0 -41.0 235.0 475.0 821.0 216.0 
106.0 286.0 180.0 -188.0 -41.0 235.0 475.0 821.0 216.0 378.0 
106.0 286.0 180.0 -188.0 -41.0 235.0 475.0 821.0 216.0 378.0 145.0 
106.0 286.0 180.0 -188.0 -41.0 235.0 475.0 821.0 216.0 378.0 145.0 -109.0 
96.0 
96.0 292.0 
96.0 292.0 194.0 
96.0 292.0 194.0 -195.0 
96.0 292.0 194.0 -195.0 -34.0 
96.0 292.0 194.0 -195.0 -34.0 235.0 
96.0 292.0 194.0 -195.0 -34.0 235.0 475.0 
96.0 292.0 194.0 -195.0 -34.0 235.0 475.0 821.0 
96.0 292.0 194.0 -195.0 -34.0 235.0 475.0 821.0 221.0 
96.0 292.0 194.0 -195.0 -34.0 235.0 475.0 821.0 221.0 373.0 
96.0 292.0 194.0 -195.0 -34.0 235.0 475.0 821.0 221.0 373.0 145.0 
96.0 292.0 194.0 -195.0 -34.0 235.0 475.0 821.0 221.0 373.0 145.0 -109.0 
96.0 
96.0 287.0 
96.0 287.0 189.0 
96.0 287.0 189.0 -193.0 
96.0 287.0 189.0 -193.0 -46.0 
96.0 287.0 189.0 -193.0 -46.0 245.0 
96.0 287.0 189.0 -193.0 -46.0 245.0 470.0 
96.0 287.0 189.0 -193.0 -46.0 245.0 470.0 820.0 
96.0 287.0 189.0 -193.0 -46.0 245.0 470.0 820.0 216.0 
96.0 287.0 189.0 -193.0 -46.0 245.0 470.0 820.0 216.0 373.0 
96.0 287.0 189.0 -193.0 -46.0 245.0 470.0 820.0 216.0 373.0 145.0 
96.0 287.0 189.0 -193.0 -46.0 245.0 470.0 820.0 216.0 373.0 145.0 -99.0 
106.0 
106.0 287.0 
106.0 287.0 180.0 
106.0 287.0 180.0 -190.0 
106.0 287.0 180.0 -190.0 -44.0 
106.0 287.0 180.0 -190.0 -44.0 240.0 
106.0 287.0 180.0 -190.0 -44.0 240.0 460.0 
106.0 287.0 180.0 -190.0 -44.0 240.0 460.0 810.0 
106.0 287.0 180.0 -190.0 -44.0 240.0 460.0 810.0 211.0 
106.0 287.0 180.0 -190.0 -44.0 240.0 460.0 810.0 211.0 373.0 
106.0 287.0 180.0 -190.0 -44.0 240.0 460.0 810.0 211.0 373.0 150.0 
106.0 287.0 180.0 -190.0 -44.0 240.0 460.0 810.0 211.0 373.0 150.0 -99.0 
81.0 
81.0 263.0 
81.0 263.0 180.0 
81.0 263.0 180.0 -195.0 
81.0 263.0 180.0 -195.0 -34.0 
81.0 263.0 180.0 -195.0 -34.0 235.0 
81.0 263.0 180.0 -195.0 -34.0 235.0 460.0 
81.0 263.0 180.0 -195.0 -34.0 235.0 460.0 804.0 
81.0 263.0 180.0 -195.0 -34.0 235.0 460.0 804.0 211.0 
81.0 263.0 180.0 -195.0 -34.0 235.0 460.0 804.0 211.0 368.0 
81.0 263.0 180.0 -195.0 -34.0 235.0 460.0 804.0 211.0 368.0 141.0 
81.0 263.0 180.0 -195.0 -34.0 235.0 460.0 804.0 211.0 368.0 141.0 -107.0 
77.0 
77.0 253.0 
77.0 253.0 175.0 
77.0 253.0 175.0 -171.0 
77.0 253.0 175.0 -171.0 -46.0 
77.0 253.0 175.0 -171.0 -46.0 223.0 
77.0 253.0 175.0 -171.0 -46.0 223.0 470.0 
77.0 253.0 175.0 -171.0 -46.0 223.0 470.0 814.0 
77.0 253.0 175.0 -171.0 -46.0 223.0 470.0 814.0 216.0 
77.0 253.0 175.0 -171.0 -46.0 223.0 470.0 814.0 216.0 367.0 
77.0 253.0 175.0 -171.0 -46.0 223.0 470.0 814.0 216.0 367.0 141.0 
77.0 253.0 175.0 -171.0 -46.0 223.0 470.0 814.0 216.0 367.0 141.0 -102.0 
86.0 
86.0 258.0 
86.0 258.0 170.0 
86.0 258.0 170.0 -164.0 
86.0 258.0 170.0 -164.0 -46.0 
86.0 258.0 170.0 -164.0 -46.0 215.0 
86.0 258.0 170.0 -164.0 -46.0 215.0 469.0 
86.0 258.0 170.0 -164.0 -46.0 215.0 469.0 809.0 
86.0 258.0 170.0 -164.0 -46.0 215.0 469.0 809.0 206.0 
86.0 258.0 170.0 -164.0 -46.0 215.0 469.0 809.0 206.0 377.0 
86.0 258.0 170.0 -164.0 -46.0 215.0 469.0 809.0 206.0 377.0 151.0 
86.0 258.0 170.0 -164.0 -46.0 215.0 469.0 809.0 206.0 377.0 151.0 -93.0 
86.0 
86.0 263.0 
86.0 263.0 175.0 
86.0 263.0 175.0 -171.0 
86.0 263.0 175.0 -171.0 -39.0 
86.0 263.0 175.0 -171.0 -39.0 216.0 
86.0 263.0 175.0 -171.0 -39.0 216.0 469.0 
86.0 263.0 175.0 -171.0 -39.0 216.0 469.0 809.0 
86.0 263.0 175.0 -171.0 -39.0 216.0 469.0 809.0 206.0 
86.0 263.0 175.0 -171.0 -39.0 216.0 469.0 809.0 206.0 367.0 
86.0 263.0 175.0 -171.0 -39.0 216.0 469.0 809.0 206.0 367.0 141.0 
86.0 263.0 175.0 -171.0 -39.0 216.0 469.0 809.0 206.0 367.0 141.0 -107.0 
96.0 
96.0 268.0 
96.0 268.0 170.0 
96.0 268.0 170.0 -173.0 
96.0 268.0 170.0 -173.0 -41.0 
96.0 268.0 170.0 -173.0 -41.0 221.0 
96.0 268.0 170.0 -173.0 -41.0 221.0 474.0 
96.0 268.0 170.0 -173.0 -41.0 221.0 474.0 809.0 
96.0 268.0 170.0 -173.0 -41.0 221.0 474.0 809.0 206.0 
96.0 268.0 170.0 -173.0 -41.0 221.0 474.0 809.0 206.0 361.0 
96.0 268.0 170.0 -173.0 -41.0 221.0 474.0 809.0 206.0 361.0 141.0 
96.0 268.0 170.0 -173.0 -41.0 221.0 474.0 809.0 206.0 361.0 141.0 -107.0 
111.0 
111.0 282.0 
111.0 282.0 170.0 
111.0 282.0 170.0 -181.0 
111.0 282.0 170.0 -181.0 -34.0 
111.0 282.0 170.0 -181.0 -34.0 221.0 
111.0 282.0 170.0 -181.0 -34.0 221.0 469.0 
111.0 282.0 170.0 -181.0 -34.0 221.0 469.0 808.0 
111.0 282.0 170.0 -181.0 -34.0 221.0 469.0 808.0 201.0 
111.0 282.0 170.0 -181.0 -34.0 221.0 469.0 808.0 201.0 366.0 
111.0 282.0 170.0 -181.0 -34.0 221.0 469.0 808.0 201.0 366.0 141.0 
111.0 282.0 170.0 -181.0 -34.0 221.0 469.0 808.0 201.0 366.0 141.0 -107.0 
96.0 
96.0 282.0 
96.0 282.0 185.0 
96.0 282.0 185.0 -195.0 
96.0 282.0 185.0 -195.0 -27.0 
96.0 282.0 185.0 -195.0 -27.0 229.0 
96.0 282.0 185.0 -195.0 -27.0 229.0 474.0 
96.0 282.0 185.0 -195.0 -27.0 229.0 474.0 813.0 
96.0 282.0 185.0 -195.0 -27.0 229.0 474.0 813.0 211.0 
96.0 282.0 185.0 -195.0 -27.0 229.0 474.0 813.0 211.0 356.0 
96.0 282.0 185.0 -195.0 -27.0 229.0 474.0 813.0 211.0 356.0 131.0 
96.0 282.0 185.0 -195.0 -27.0 229.0 474.0 813.0 211.0 356.0 131.0 -117.0 
81.0 
81.0 287.0 
81.0 287.0 204.0 
81.0 287.0 204.0 -188.0 
81.0 287.0 204.0 -188.0 -41.0 
81.0 287.0 204.0 -188.0 -41.0 236.0 
81.0 287.0 204.0 -188.0 -41.0 236.0 474.0 
81.0 287.0 204.0 -188.0 -41.0 236.0 474.0 813.0 
81.0 287.0 204.0 -188.0 -41.0 236.0 474.0 813.0 216.0 
81.0 287.0 204.0 -188.0 -41.0 236.0 474.0 813.0 216.0 361.0 
81.0 287.0 204.0 -188.0 -41.0 236.0 474.0 813.0 216.0 361.0 136.0 
81.0 287.0 204.0 -188.0 -41.0 236.0 474.0 813.0 216.0 361.0 136.0 -106.0 
86.0 
86.0 263.0 
86.0 263.0 175.0 
86.0 263.0 175.0 -183.0 
86.0 263.0 175.0 -183.0 -59.0 
86.0 263.0 175.0 -183.0 -59.0 248.0 
86.0 263.0 175.0 -183.0 -59.0 248.0 474.0 
86.0 263.0 175.0 -183.0 -59.0 248.0 474.0 813.0 
86.0 263.0 175.0 -183.0 -59.0 248.0 474.0 813.0 211.0 
86.0 263.0 175.0 -183.0 -59.0 248.0 474.0 813.0 211.0 371.0 
86.0 263.0 175.0 -183.0 -59.0 248.0 474.0 813.0 211.0 371.0 146.0 
86.0 263.0 175.0 -183.0 -59.0 248.0 474.0 813.0 211.0 371.0 146.0 -101.0 
77.0 
77.0 248.0 
77.0 248.0 170.0 
77.0 248.0 170.0 -173.0 
77.0 248.0 170.0 -173.0 -41.0 
77.0 248.0 170.0 -173.0 -41.0 221.0 
77.0 248.0 170.0 -173.0 -41.0 221.0 474.0 
77.0 248.0 170.0 -173.0 -41.0 221.0 474.0 812.0 
77.0 248.0 170.0 -173.0 -41.0 221.0 474.0 812.0 216.0 
77.0 248.0 170.0 -173.0 -41.0 221.0 474.0 812.0 216.0 366.0 
77.0 248.0 170.0 -173.0 -41.0 221.0 474.0 812.0 216.0 366.0 136.0 
77.0 248.0 170.0 -173.0 -41.0 221.0 474.0 812.0 216.0 366.0 136.0 -111.0 
77.0 
77.0 258.0 
77.0 258.0 180.0 
77.0 258.0 180.0 -161.0 
77.0 258.0 180.0 -161.0 -44.0 
77.0 258.0 180.0 -161.0 -44.0 211.0 
77.0 258.0 180.0 -161.0 -44.0 211.0 479.0 
77.0 258.0 180.0 -161.0 -44.0 211.0 479.0 817.0 
77.0 258.0 180.0 -161.0 -44.0 211.0 479.0 817.0 213.0 
77.0 258.0 180.0 -161.0 -44.0 211.0 479.0 817.0 213.0 371.0 
77.0 258.0 180.0 -161.0 -44.0 211.0 479.0 817.0 213.0 371.0 146.0 
77.0 258.0 180.0 -161.0 -44.0 211.0 479.0 817.0 213.0 371.0 146.0 -101.0 
77.0 
77.0 249.0 
77.0 249.0 170.0 
77.0 249.0 170.0 -166.0 
77.0 249.0 170.0 -166.0 -49.0 
77.0 249.0 170.0 -166.0 -49.0 221.0 
77.0 249.0 170.0 -166.0 -49.0 221.0 484.0 
77.0 249.0 170.0 -166.0 -49.0 221.0 484.0 811.0 
77.0 249.0 170.0 -166.0 -49.0 221.0 484.0 811.0 208.0 
77.0 249.0 170.0 -166.0 -49.0 221.0 484.0 811.0 208.0 371.0 
77.0 249.0 170.0 -166.0 -49.0 221.0 484.0 811.0 208.0 371.0 141.0 
77.0 249.0 170.0 -166.0 -49.0 221.0 484.0 811.0 208.0 371.0 141.0 -111.0 
81.0 
81.0 264.0 
81.0 264.0 181.0 
81.0 264.0 181.0 -161.0 
81.0 264.0 181.0 -161.0 -44.0 
81.0 264.0 181.0 -161.0 -44.0 211.0 
81.0 264.0 181.0 -161.0 -44.0 211.0 478.0 
81.0 264.0 181.0 -161.0 -44.0 211.0 478.0 806.0 
81.0 264.0 181.0 -161.0 -44.0 211.0 478.0 806.0 208.0 
81.0 264.0 181.0 -161.0 -44.0 211.0 478.0 806.0 208.0 366.0 
81.0 264.0 181.0 -161.0 -44.0 211.0 478.0 806.0 208.0 366.0 131.0 
81.0 264.0 181.0 -161.0 -44.0 211.0 478.0 806.0 208.0 366.0 131.0 -121.0 
96.0 
96.0 279.0 
96.0 279.0 181.0 
96.0 279.0 181.0 -171.0 
96.0 279.0 181.0 -171.0 -46.0 
96.0 279.0 181.0 -171.0 -46.0 224.0 
96.0 279.0 181.0 -171.0 -46.0 224.0 483.0 
96.0 279.0 181.0 -171.0 -46.0 224.0 483.0 811.0 
96.0 279.0 181.0 -171.0 -46.0 224.0 483.0 811.0 208.0 
96.0 279.0 181.0 -171.0 -46.0 224.0 483.0 811.0 208.0 371.0 
96.0 279.0 181.0 -171.0 -46.0 224.0 483.0 811.0 208.0 371.0 136.0 
96.0 279.0 181.0 -171.0 -46.0 224.0 483.0 811.0 208.0 371.0 136.0 -116.0 
91.0 
91.0 269.0 
91.0 269.0 176.0 
91.0 269.0 176.0 -186.0 
91.0 269.0 176.0 -186.0 -39.0 
91.0 269.0 176.0 -186.0 -39.0 231.0 
91.0 269.0 176.0 -186.0 -39.0 231.0 488.0 
91.0 269.0 176.0 -186.0 -39.0 231.0 488.0 816.0 
91.0 269.0 176.0 -186.0 -39.0 231.0 488.0 816.0 213.0 
91.0 269.0 176.0 -186.0 -39.0 231.0 488.0 816.0 213.0 365.0 
91.0 269.0 176.0 -186.0 -39.0 231.0 488.0 816.0 213.0 365.0 132.0 
91.0 269.0 176.0 -186.0 -39.0 231.0 488.0 816.0 213.0 365.0 132.0 -114.0 
86.0 
86.0 269.0 
86.0 269.0 181.0 
86.0 269.0 181.0 -178.0 
86.0 269.0 181.0 -178.0 -39.0 
86.0 269.0 181.0 -178.0 -39.0 224.0 
86.0 269.0 181.0 -178.0 -39.0 224.0 473.0 
86.0 269.0 181.0 -178.0 -39.0 224.0 473.0 806.0 
86.0 269.0 181.0 -178.0 -39.0 224.0 473.0 806.0 208.0 
86.0 269.0 181.0 -178.0 -39.0 224.0 473.0 806.0 208.0 370.0 
86.0 269.0 181.0 -178.0 -39.0 224.0 473.0 806.0 208.0 370.0 137.0 
86.0 269.0 181.0 -178.0 -39.0 224.0 473.0 806.0 208.0 370.0 137.0 -114.0 
77.0 
77.0 269.0 
77.0 269.0 190.0 
77.0 269.0 190.0 -176.0 
77.0 269.0 190.0 -176.0 -44.0 
77.0 269.0 190.0 -176.0 -44.0 226.0 
77.0 269.0 190.0 -176.0 -44.0 226.0 488.0 
77.0 269.0 190.0 -176.0 -44.0 226.0 488.0 810.0 
77.0 269.0 190.0 -176.0 -44.0 226.0 488.0 810.0 213.0 
77.0 269.0 190.0 -176.0 -44.0 226.0 488.0 810.0 213.0 365.0 
77.0 269.0 190.0 -176.0 -44.0 226.0 488.0 810.0 213.0 365.0 132.0 
77.0 269.0 190.0 -176.0 -44.0 226.0 488.0 810.0 213.0 365.0 132.0 -114.0 
67.0 
67.0 264.0 
67.0 264.0 195.0 
67.0 264.0 195.0 -171.0 
67.0 264.0 195.0 -171.0 -54.0 
67.0 264.0 195.0 -171.0 -54.0 231.0 
67.0 264.0 195.0 -171.0 -54.0 231.0 488.0 
67.0 264.0 195.0 -171.0 -54.0 231.0 488.0 815.0 
67.0 264.0 195.0 -171.0 -54.0 231.0 488.0 815.0 218.0 
67.0 264.0 195.0 -171.0 -54.0 231.0 488.0 815.0 218.0 375.0 
67.0 264.0 195.0 -171.0 -54.0 231.0 488.0 815.0 218.0 375.0 137.0 
67.0 264.0 195.0 -171.0 -54.0 231.0 488.0 815.0 218.0 375.0 137.0 -109.0 
77.0 
77.0 250.0 
77.0 250.0 171.0 
77.0 250.0 171.0 -164.0 
77.0 250.0 171.0 -164.0 -61.0 
77.0 250.0 171.0 -164.0 -61.0 231.0 
77.0 250.0 171.0 -164.0 -61.0 231.0 483.0 
77.0 250.0 171.0 -164.0 -61.0 231.0 483.0 810.0 
77.0 250.0 171.0 -164.0 -61.0 231.0 483.0 810.0 208.0 
77.0 250.0 171.0 -164.0 -61.0 231.0 483.0 810.0 208.0 375.0 
77.0 250.0 171.0 -164.0 -61.0 231.0 483.0 810.0 208.0 375.0 137.0 
77.0 250.0 171.0 -164.0 -61.0 231.0 483.0 810.0 208.0 375.0 137.0 -109.0 
72.0 
72.0 241.0 
72.0 241.0 166.0 
72.0 241.0 166.0 -161.0 
72.0 241.0 166.0 -161.0 -44.0 
72.0 241.0 166.0 -161.0 -44.0 211.0 
72.0 241.0 166.0 -161.0 -44.0 211.0 488.0 
72.0 241.0 166.0 -161.0 -44.0 211.0 488.0 815.0 
72.0 241.0 166.0 -161.0 -44.0 211.0 488.0 815.0 208.0 
72.0 241.0 166.0 -161.0 -44.0 211.0 488.0 815.0 208.0 375.0 
72.0 241.0 166.0 -161.0 -44.0 211.0 488.0 815.0 208.0 375.0 132.0 
72.0 241.0 166.0 -161.0 -44.0 211.0 488.0 815.0 208.0 375.0 132.0 -114.0 
81.0 
81.0 241.0 
81.0 241.0 156.0 
81.0 241.0 156.0 -154.0 
81.0 241.0 156.0 -154.0 -44.0 
81.0 241.0 156.0 -154.0 -44.0 204.0 
81.0 241.0 156.0 -154.0 -44.0 204.0 488.0 
81.0 241.0 156.0 -154.0 -44.0 204.0 488.0 814.0 
81.0 241.0 156.0 -154.0 -44.0 204.0 488.0 814.0 208.0 
81.0 241.0 156.0 -154.0 -44.0 204.0 488.0 814.0 208.0 369.0 
81.0 241.0 156.0 -154.0 -44.0 204.0 488.0 814.0 208.0 369.0 127.0 
81.0 241.0 156.0 -154.0 -44.0 204.0 488.0 814.0 208.0 369.0 127.0 -119.0 
86.0 
86.0 265.0 
86.0 265.0 176.0 
86.0 265.0 176.0 -160.0 
86.0 265.0 176.0 -160.0 -34.0 
86.0 265.0 176.0 -160.0 -34.0 199.0 
86.0 265.0 176.0 -160.0 -34.0 199.0 488.0 
86.0 265.0 176.0 -160.0 -34.0 199.0 488.0 814.0 
86.0 265.0 176.0 -160.0 -34.0 199.0 488.0 814.0 208.0 
86.0 265.0 176.0 -160.0 -34.0 199.0 488.0 814.0 208.0 369.0 
86.0 265.0 176.0 -160.0 -34.0 199.0 488.0 814.0 208.0 369.0 128.0 
86.0 265.0 176.0 -160.0 -34.0 199.0 488.0 814.0 208.0 369.0 128.0 -118.0 
96.0 
96.0 260.0 
96.0 260.0 161.0 
96.0 260.0 161.0 -174.0 
96.0 260.0 161.0 -174.0 -41.0 
96.0 260.0 161.0 -174.0 -41.0 221.0 
96.0 260.0 161.0 -174.0 -41.0 221.0 488.0 
96.0 260.0 161.0 -174.0 -41.0 221.0 488.0 813.0 
96.0 260.0 161.0 -174.0 -41.0 221.0 488.0 813.0 208.0 
96.0 260.0 161.0 -174.0 -41.0 221.0 488.0 813.0 208.0 374.0 
96.0 260.0 161.0 -174.0 -41.0 221.0 488.0 813.0 208.0 374.0 128.0 
96.0 260.0 161.0 -174.0 -41.0 221.0 488.0 813.0 208.0 374.0 128.0 -128.0 
91.0 
91.0 275.0 
91.0 275.0 181.0 
91.0 275.0 181.0 -177.0 
91.0 275.0 181.0 -177.0 -29.0 
91.0 275.0 181.0 -177.0 -29.0 211.0 
91.0 275.0 181.0 -177.0 -29.0 211.0 493.0 
91.0 275.0 181.0 -177.0 -29.0 211.0 493.0 818.0 
91.0 275.0 181.0 -177.0 -29.0 211.0 493.0 818.0 218.0 
91.0 275.0 181.0 -177.0 -29.0 211.0 493.0 818.0 218.0 369.0 
91.0 275.0 181.0 -177.0 -29.0 211.0 493.0 818.0 218.0 369.0 128.0 
91.0 275.0 181.0 -177.0 -29.0 211.0 493.0 818.0 218.0 369.0 128.0 -123.0 
86.0 
86.0 260.0 
86.0 260.0 171.0 
86.0 260.0 171.0 -182.0 
86.0 260.0 171.0 -182.0 -41.0 
86.0 260.0 171.0 -182.0 -41.0 229.0 
86.0 260.0 171.0 -182.0 -41.0 229.0 493.0 
86.0 260.0 171.0 -182.0 -41.0 229.0 493.0 818.0 
86.0 260.0 171.0 -182.0 -41.0 229.0 493.0 818.0 213.0 
86.0 260.0 171.0 -182.0 -41.0 229.0 493.0 818.0 213.0 377.0 
86.0 260.0 171.0 -182.0 -41.0 229.0 493.0 818.0 213.0 377.0 138.0 
86.0 260.0 171.0 -182.0 -41.0 229.0 493.0 818.0 213.0 377.0 138.0 -113.0 
77.0 
77.0 241.0 
77.0 241.0 161.0 
77.0 241.0 161.0 -172.0 
77.0 241.0 161.0 -172.0 -39.0 
77.0 241.0 161.0 -172.0 -39.0 217.0 
77.0 241.0 161.0 -172.0 -39.0 217.0 488.0 
77.0 241.0 161.0 -172.0 -39.0 217.0 488.0 813.0 
77.0 241.0 161.0 -172.0 -39.0 217.0 488.0 813.0 213.0 
77.0 241.0 161.0 -172.0 -39.0 217.0 488.0 813.0 213.0 373.0 
77.0 241.0 161.0 -172.0 -39.0 217.0 488.0 813.0 213.0 373.0 133.0 
77.0 241.0 161.0 -172.0 -39.0 217.0 488.0 813.0 213.0 373.0 133.0 -118.0 
57.0 
57.0 241.0 
57.0 241.0 181.0 
57.0 241.0 181.0 -157.0 
57.0 241.0 181.0 -157.0 -39.0 
57.0 241.0 181.0 -157.0 -39.0 203.0 
57.0 241.0 181.0 -157.0 -39.0 203.0 488.0 
57.0 241.0 181.0 -157.0 -39.0 203.0 488.0 818.0 
57.0 241.0 181.0 -157.0 -39.0 203.0 488.0 818.0 213.0 
57.0 241.0 181.0 -157.0 -39.0 203.0 488.0 818.0 213.0 368.0 
57.0 241.0 181.0 -157.0 -39.0 203.0 488.0 818.0 213.0 368.0 128.0 
57.0 241.0 181.0 -157.0 -39.0 203.0 488.0 818.0 213.0 368.0 128.0 -118.0 
67.0 
67.0 241.0 
67.0 241.0 171.0 
67.0 241.0 171.0 -148.0 
67.0 241.0 171.0 -148.0 -59.0 
67.0 241.0 171.0 -148.0 -59.0 212.0 
67.0 241.0 171.0 -148.0 -59.0 212.0 493.0 
67.0 241.0 171.0 -148.0 -59.0 212.0 493.0 817.0 
67.0 241.0 171.0 -148.0 -59.0 212.0 493.0 817.0 213.0 
67.0 241.0 171.0 -148.0 -59.0 212.0 493.0 817.0 213.0 373.0 
67.0 241.0 171.0 -148.0 -59.0 212.0 493.0 817.0 213.0 373.0 133.0 
67.0 241.0 171.0 -148.0 -59.0 212.0 493.0 817.0 213.0 373.0 133.0 -118.0 
81.0 
81.0 265.0 
81.0 265.0 181.0 
81.0 265.0 181.0 -152.0 
81.0 265.0 181.0 -152.0 -49.0 
81.0 265.0 181.0 -152.0 -49.0 208.0 
81.0 265.0 181.0 -152.0 -49.0 208.0 496.0 
81.0 265.0 181.0 -152.0 -49.0 208.0 496.0 817.0 
81.0 265.0 181.0 -152.0 -49.0 208.0 496.0 817.0 213.0 
81.0 265.0 181.0 -152.0 -49.0 208.0 496.0 817.0 213.0 373.0 
81.0 265.0 181.0 -152.0 -49.0 208.0 496.0 817.0 213.0 373.0 133.0 
81.0 265.0 181.0 -152.0 -49.0 208.0 496.0 817.0 213.0 373.0 133.0 -116.0 
91.0 
91.0 275.0 
91.0 275.0 181.0 
91.0 275.0 181.0 -172.0 
91.0 275.0 181.0 -172.0 -46.0 
91.0 275.0 181.0 -172.0 -46.0 225.0 
91.0 275.0 181.0 -172.0 -46.0 225.0 492.0 
91.0 275.0 181.0 -172.0 -46.0 225.0 492.0 817.0 
91.0 275.0 181.0 -172.0 -46.0 225.0 492.0 817.0 213.0 
91.0 275.0 181.0 -172.0 -46.0 225.0 492.0 817.0 213.0 368.0 
91.0 275.0 181.0 -172.0 -46.0 225.0 492.0 817.0 213.0 368.0 128.0 
91.0 275.0 181.0 -172.0 -46.0 225.0 492.0 817.0 213.0 368.0 128.0 -121.0 
96.0 
96.0 275.0 
96.0 275.0 176.0 
96.0 275.0 176.0 -182.0 
96.0 275.0 176.0 -182.0 -41.0 
96.0 275.0 176.0 -182.0 -41.0 230.0 
96.0 275.0 176.0 -182.0 -41.0 230.0 487.0 
96.0 275.0 176.0 -182.0 -41.0 230.0 487.0 807.0 
96.0 275.0 176.0 -182.0 -41.0 230.0 487.0 807.0 203.0 
96.0 275.0 176.0 -182.0 -41.0 230.0 487.0 807.0 203.0 368.0 
96.0 275.0 176.0 -182.0 -41.0 230.0 487.0 807.0 203.0 368.0 128.0 
96.0 275.0 176.0 -182.0 -41.0 230.0 487.0 807.0 203.0 368.0 128.0 -121.0 
96.0 
96.0 275.0 
96.0 275.0 176.0 
96.0 275.0 176.0 -184.0 
96.0 275.0 176.0 -184.0 -37.0 
96.0 275.0 176.0 -184.0 -37.0 227.0 
96.0 275.0 176.0 -184.0 -37.0 227.0 487.0 
96.0 275.0 176.0 -184.0 -37.0 227.0 487.0 811.0 
96.0 275.0 176.0 -184.0 -37.0 227.0 487.0 811.0 213.0 
96.0 275.0 176.0 -184.0 -37.0 227.0 487.0 811.0 213.0 358.0 
96.0 275.0 176.0 -184.0 -37.0 227.0 487.0 811.0 213.0 358.0 114.0 
96.0 275.0 176.0 -184.0 -37.0 227.0 487.0 811.0 213.0 358.0 114.0 -135.0 
91.0 
91.0 260.0 
91.0 260.0 166.0 
91.0 260.0 166.0 -184.0 
91.0 260.0 166.0 -184.0 -37.0 
91.0 260.0 166.0 -184.0 -37.0 227.0 
91.0 260.0 166.0 -184.0 -37.0 227.0 487.0 
91.0 260.0 166.0 -184.0 -37.0 227.0 487.0 811.0 
91.0 260.0 166.0 -184.0 -37.0 227.0 487.0 811.0 213.0 
91.0 260.0 166.0 -184.0 -37.0 227.0 487.0 811.0 213.0 368.0 
91.0 260.0 166.0 -184.0 -37.0 227.0 487.0 811.0 213.0 368.0 128.0 
91.0 260.0 166.0 -184.0 -37.0 227.0 487.0 811.0 213.0 368.0 128.0 -126.0 
86.0 
86.0 255.0 
86.0 255.0 166.0 
86.0 255.0 166.0 -175.0 
86.0 255.0 166.0 -175.0 -36.0 
86.0 255.0 166.0 -175.0 -36.0 216.0 
86.0 255.0 166.0 -175.0 -36.0 216.0 482.0 
86.0 255.0 166.0 -175.0 -36.0 216.0 482.0 810.0 
86.0 255.0 166.0 -175.0 -36.0 216.0 482.0 810.0 213.0 
86.0 255.0 166.0 -175.0 -36.0 216.0 482.0 810.0 213.0 372.0 
86.0 255.0 166.0 -175.0 -36.0 216.0 482.0 810.0 213.0 372.0 133.0 
86.0 255.0 166.0 -175.0 -36.0 216.0 482.0 810.0 213.0 372.0 133.0 -121.0 
77.0 
77.0 245.0 
77.0 245.0 166.0 
77.0 245.0 166.0 -171.0 
77.0 245.0 166.0 -171.0 -39.0 
77.0 245.0 166.0 -171.0 -39.0 213.0 
77.0 245.0 166.0 -171.0 -39.0 213.0 495.0 
77.0 245.0 166.0 -171.0 -39.0 213.0 495.0 820.0 
77.0 245.0 166.0 -171.0 -39.0 213.0 495.0 820.0 218.0 
77.0 245.0 166.0 -171.0 -39.0 213.0 495.0 820.0 218.0 367.0 
77.0 245.0 166.0 -171.0 -39.0 213.0 495.0 820.0 218.0 367.0 128.0 
77.0 245.0 166.0 -171.0 -39.0 213.0 495.0 820.0 218.0 367.0 128.0 -121.0 
62.0 
62.0 245.0 
62.0 245.0 181.0 
62.0 245.0 181.0 -161.0 
62.0 245.0 181.0 -161.0 -43.0 
62.0 245.0 181.0 -161.0 -43.0 209.0 
62.0 245.0 181.0 -161.0 -43.0 209.0 491.0 
62.0 245.0 181.0 -161.0 -43.0 209.0 491.0 815.0 
62.0 245.0 181.0 -161.0 -43.0 209.0 491.0 815.0 213.0 
62.0 245.0 181.0 -161.0 -43.0 209.0 491.0 815.0 213.0 376.0 
62.0 245.0 181.0 -161.0 -43.0 209.0 491.0 815.0 213.0 376.0 138.0 
62.0 245.0 181.0 -161.0 -43.0 209.0 491.0 815.0 213.0 376.0 138.0 -110.0 
77.0 
77.0 255.0 
77.0 255.0 177.0 
77.0 255.0 177.0 -153.0 
77.0 255.0 177.0 -153.0 -58.0 
77.0 255.0 177.0 -153.0 -58.0 216.0 
77.0 255.0 177.0 -153.0 -58.0 216.0 491.0 
77.0 255.0 177.0 -153.0 -58.0 216.0 491.0 815.0 
77.0 255.0 177.0 -153.0 -58.0 216.0 491.0 815.0 208.0 
77.0 255.0 177.0 -153.0 -58.0 216.0 491.0 815.0 208.0 372.0 
77.0 255.0 177.0 -153.0 -58.0 216.0 491.0 815.0 208.0 372.0 128.0 
77.0 255.0 177.0 -153.0 -58.0 216.0 491.0 815.0 208.0 372.0 128.0 -115.0 
91.0 
91.0 255.0 
91.0 255.0 162.0 
91.0 255.0 162.0 -166.0 
91.0 255.0 162.0 -166.0 -48.0 
91.0 255.0 162.0 -166.0 -48.0 218.0 
91.0 255.0 162.0 -166.0 -48.0 218.0 495.0 
91.0 255.0 162.0 -166.0 -48.0 218.0 495.0 820.0 
91.0 255.0 162.0 -166.0 -48.0 218.0 495.0 820.0 213.0 
91.0 255.0 162.0 -166.0 -48.0 218.0 495.0 820.0 213.0 367.0 
91.0 255.0 162.0 -166.0 -48.0 218.0 495.0 820.0 213.0 367.0 123.0 
91.0 255.0 162.0 -166.0 -48.0 218.0 495.0 820.0 213.0 367.0 123.0 -125.0 
96.0 
96.0 265.0 
96.0 265.0 167.0 
96.0 265.0 167.0 -173.0 
96.0 265.0 167.0 -173.0 -34.0 
96.0 265.0 167.0 -173.0 -34.0 211.0 
96.0 265.0 167.0 -173.0 -34.0 211.0 491.0 
96.0 265.0 167.0 -173.0 -34.0 211.0 491.0 814.0 
96.0 265.0 167.0 -173.0 -34.0 211.0 491.0 814.0 208.0 
96.0 265.0 167.0 -173.0 -34.0 211.0 491.0 814.0 208.0 372.0 
96.0 265.0 167.0 -173.0 -34.0 211.0 491.0 814.0 208.0 372.0 128.0 
96.0 265.0 167.0 -173.0 -34.0 211.0 491.0 814.0 208.0 372.0 128.0 -125.0 
96.0 
96.0 276.0 
96.0 276.0 177.0 
96.0 276.0 177.0 -180.0 
96.0 276.0 177.0 -180.0 -34.0 
96.0 276.0 177.0 -180.0 -34.0 218.0 
96.0 276.0 177.0 -180.0 -34.0 218.0 491.0 
96.0 276.0 177.0 -180.0 -34.0 218.0 491.0 809.0 
96.0 276.0 177.0 -180.0 -34.0 218.0 491.0 809.0 208.0 
96.0 276.0 177.0 -180.0 -34.0 218.0 491.0 809.0 208.0 367.0 
96.0 276.0 177.0 -180.0 -34.0 218.0 491.0 809.0 208.0 367.0 119.0 
96.0 276.0 177.0 -180.0 -34.0 218.0 491.0 809.0 208.0 367.0 119.0 -130.0 
91.0 
91.0 266.0 
91.0 266.0 172.0 
91.0 266.0 172.0 -185.0 
91.0 266.0 172.0 -185.0 -39.0 
91.0 266.0 172.0 -185.0 -39.0 228.0 
91.0 266.0 172.0 -185.0 -39.0 228.0 495.0 
91.0 266.0 172.0 -185.0 -39.0 228.0 495.0 814.0 
91.0 266.0 172.0 -185.0 -39.0 228.0 495.0 814.0 213.0 
91.0 266.0 172.0 -185.0 -39.0 228.0 495.0 814.0 213.0 366.0 
91.0 266.0 172.0 -185.0 -39.0 228.0 495.0 814.0 213.0 366.0 123.0 
91.0 266.0 172.0 -185.0 -39.0 228.0 495.0 814.0 213.0 366.0 123.0 -125.0 
86.0 
86.0 251.0 
86.0 251.0 162.0 
86.0 251.0 162.0 -178.0 
86.0 251.0 162.0 -178.0 -39.0 
86.0 251.0 162.0 -178.0 -39.0 221.0 
86.0 251.0 162.0 -178.0 -39.0 221.0 486.0 
86.0 251.0 162.0 -178.0 -39.0 221.0 486.0 809.0 
86.0 251.0 162.0 -178.0 -39.0 221.0 486.0 809.0 213.0 
86.0 251.0 162.0 -178.0 -39.0 221.0 486.0 809.0 213.0 375.0 
86.0 251.0 162.0 -178.0 -39.0 221.0 486.0 809.0 213.0 375.0 133.0 
86.0 251.0 162.0 -178.0 -39.0 221.0 486.0 809.0 213.0 375.0 133.0 -120.0 
77.0 
77.0 242.0 
77.0 242.0 162.0 
77.0 242.0 162.0 -168.0 
77.0 242.0 162.0 -168.0 -36.0 
77.0 242.0 162.0 -168.0 -36.0 209.0 
77.0 242.0 162.0 -168.0 -36.0 209.0 495.0 
77.0 242.0 162.0 -168.0 -36.0 209.0 495.0 813.0 
77.0 242.0 162.0 -168.0 -36.0 209.0 495.0 813.0 218.0 
77.0 242.0 162.0 -168.0 -36.0 209.0 495.0 813.0 218.0 371.0 
77.0 242.0 162.0 -168.0 -36.0 209.0 495.0 813.0 218.0 371.0 129.0 
77.0 242.0 162.0 -168.0 -36.0 209.0 495.0 813.0 218.0 371.0 129.0 -123.0 
77.0 
77.0 246.0 
77.0 246.0 167.0 
77.0 246.0 167.0 -158.0 
77.0 246.0 167.0 -158.0 -41.0 
77.0 246.0 167.0 -158.0 -41.0 204.0 
77.0 246.0 167.0 -158.0 -41.0 204.0 500.0 
77.0 246.0 167.0 -158.0 -41.0 204.0 500.0 822.0 
77.0 246.0 167.0 -158.0 -41.0 204.0 500.0 822.0 218.0 
77.0 246.0 167.0 -158.0 -41.0 204.0 500.0 822.0 218.0 374.0 
77.0 246.0 167.0 -158.0 -41.0 204.0 500.0 822.0 218.0 374.0 134.0 
77.0 246.0 167.0 -158.0 -41.0 204.0 500.0 822.0 218.0 374.0 134.0 -118.0 
77.0 
77.0 251.0 
77.0 251.0 173.0 
77.0 251.0 173.0 -161.0 
77.0 251.0 173.0 -161.0 -43.0 
77.0 251.0 173.0 -161.0 -43.0 209.0 
77.0 251.0 173.0 -161.0 -43.0 209.0 499.0 
77.0 251.0 173.0 -161.0 -43.0 209.0 499.0 817.0 
77.0 251.0 173.0 -161.0 -43.0 209.0 499.0 817.0 208.0 
77.0 251.0 173.0 -161.0 -43.0 209.0 499.0 817.0 208.0 379.0 
77.0 251.0 173.0 -161.0 -43.0 209.0 499.0 817.0 208.0 379.0 139.0 
77.0 251.0 173.0 -161.0 -43.0 209.0 499.0 817.0 208.0 379.0 139.0 -113.0 
72.0 
72.0 261.0 
72.0 261.0 188.0 
72.0 261.0 188.0 -163.0 
72.0 261.0 188.0 -163.0 -46.0 
72.0 261.0 188.0 -163.0 -46.0 213.0 
72.0 261.0 188.0 -163.0 -46.0 213.0 494.0 
72.0 261.0 188.0 -163.0 -46.0 213.0 494.0 817.0 
72.0 261.0 188.0 -163.0 -46.0 213.0 494.0 817.0 208.0 
72.0 261.0 188.0 -163.0 -46.0 213.0 494.0 817.0 208.0 370.0 
72.0 261.0 188.0 -163.0 -46.0 213.0 494.0 817.0 208.0 370.0 124.0 
72.0 261.0 188.0 -163.0 -46.0 213.0 494.0 817.0 208.0 370.0 124.0 -132.0 
86.0 
86.0 261.0 
86.0 261.0 173.0 
86.0 261.0 173.0 -166.0 
86.0 261.0 173.0 -166.0 -56.0 
86.0 261.0 173.0 -166.0 -56.0 226.0 
86.0 261.0 173.0 -166.0 -56.0 226.0 499.0 
86.0 261.0 173.0 -166.0 -56.0 226.0 499.0 817.0 
86.0 261.0 173.0 -166.0 -56.0 226.0 499.0 817.0 213.0 
86.0 261.0 173.0 -166.0 -56.0 226.0 499.0 817.0 213.0 374.0 
86.0 261.0 173.0 -166.0 -56.0 226.0 499.0 817.0 213.0 374.0 129.0 
86.0 261.0 173.0 -166.0 -56.0 226.0 499.0 817.0 213.0 374.0 129.0 -123.0 
106.0 
106.0 271.0 
106.0 271.0 163.0 
106.0 271.0 163.0 -173.0 
106.0 271.0 163.0 -173.0 -41.0 
106.0 271.0 163.0 -173.0 -41.0 219.0 
106.0 271.0 163.0 -173.0 -41.0 219.0 494.0 
106.0 271.0 163.0 -173.0 -41.0 219.0 494.0 817.0 
106.0 271.0 163.0 -173.0 -41.0 219.0 494.0 817.0 208.0 
106.0 271.0 163.0 -173.0 -41.0 219.0 494.0 817.0 208.0 379.0 
106.0 271.0 163.0 -173.0 -41.0 219.0 494.0 817.0 208.0 379.0 129.0 
106.0 271.0 163.0 -173.0 -41.0 219.0 494.0 817.0 208.0 379.0 129.0 -118.0 
101.0 
101.0 276.0 
101.0 276.0 173.0 
101.0 276.0 173.0 -188.0 
101.0 276.0 173.0 -188.0 -26.0 
101.0 276.0 173.0 -188.0 -26.0 219.0 
101.0 276.0 173.0 -188.0 -26.0 219.0 494.0 
101.0 276.0 173.0 -188.0 -26.0 219.0 494.0 812.0 
101.0 276.0 173.0 -188.0 -26.0 219.0 494.0 812.0 213.0 
101.0 276.0 173.0 -188.0 -26.0 219.0 494.0 812.0 213.0 370.0 
101.0 276.0 173.0 -188.0 -26.0 219.0 494.0 812.0 213.0 370.0 120.0 
101.0 276.0 173.0 -188.0 -26.0 219.0 494.0 812.0 213.0 370.0 120.0 -132.0 
91.0 
91.0 261.0 
91.0 261.0 168.0 
91.0 261.0 168.0 -188.0 
91.0 261.0 168.0 -188.0 -34.0 
91.0 261.0 168.0 -188.0 -34.0 227.0 
91.0 261.0 168.0 -188.0 -34.0 227.0 494.0 
91.0 261.0 168.0 -188.0 -34.0 227.0 494.0 811.0 
91.0 261.0 168.0 -188.0 -34.0 227.0 494.0 811.0 218.0 
91.0 261.0 168.0 -188.0 -34.0 227.0 494.0 811.0 218.0 374.0 
91.0 261.0 168.0 -188.0 -34.0 227.0 494.0 811.0 218.0 374.0 129.0 
91.0 261.0 168.0 -188.0 -34.0 227.0 494.0 811.0 218.0 374.0 129.0 -122.0 
77.0 
77.0 237.0 
77.0 237.0 158.0 
77.0 237.0 158.0 -175.0 
77.0 237.0 158.0 -175.0 -36.0 
77.0 237.0 158.0 -175.0 -36.0 217.0 
77.0 237.0 158.0 -175.0 -36.0 217.0 490.0 
77.0 237.0 158.0 -175.0 -36.0 217.0 490.0 811.0 
77.0 237.0 158.0 -175.0 -36.0 217.0 490.0 811.0 213.0 
77.0 237.0 158.0 -175.0 -36.0 217.0 490.0 811.0 213.0 379.0 
77.0 237.0 158.0 -175.0 -36.0 217.0 490.0 811.0 213.0 379.0 129.0 
77.0 237.0 158.0 -175.0 -36.0 217.0 490.0 811.0 213.0 379.0 129.0 -122.0 
67.0 
67.0 242.0 
67.0 242.0 173.0 
67.0 242.0 173.0 -156.0 
67.0 242.0 173.0 -156.0 -39.0 
67.0 242.0 173.0 -156.0 -39.0 200.0 
67.0 242.0 173.0 -156.0 -39.0 200.0 494.0 
67.0 242.0 173.0 -156.0 -39.0 200.0 494.0 816.0 
67.0 242.0 173.0 -156.0 -39.0 200.0 494.0 816.0 218.0 
67.0 242.0 173.0 -156.0 -39.0 200.0 494.0 816.0 218.0 374.0 
67.0 242.0 173.0 -156.0 -39.0 200.0 494.0 816.0 218.0 374.0 129.0 
67.0 242.0 173.0 -156.0 -39.0 200.0 494.0 816.0 218.0 374.0 129.0 -122.0 
77.0 
77.0 238.0 
77.0 238.0 158.0 
77.0 238.0 158.0 -153.0 
77.0 238.0 158.0 -153.0 -51.0 
77.0 238.0 158.0 -153.0 -51.0 210.0 
77.0 238.0 158.0 -153.0 -51.0 210.0 504.0 
77.0 238.0 158.0 -153.0 -51.0 210.0 504.0 820.0 
77.0 238.0 158.0 -153.0 -51.0 210.0 504.0 820.0 213.0 
77.0 238.0 158.0 -153.0 -51.0 210.0 504.0 820.0 213.0 378.0 
77.0 238.0 158.0 -153.0 -51.0 210.0 504.0 820.0 213.0 378.0 139.0 
77.0 238.0 158.0 -153.0 -51.0 210.0 504.0 820.0 213.0 378.0 139.0 -112.0 
77.0 
77.0 252.0 
77.0 252.0 173.0 
77.0 252.0 173.0 -156.0 
77.0 252.0 173.0 -156.0 -39.0 
77.0 252.0 173.0 -156.0 -39.0 200.0 
77.0 252.0 173.0 -156.0 -39.0 200.0 499.0 
77.0 252.0 173.0 -156.0 -39.0 200.0 499.0 815.0 
77.0 252.0 173.0 -156.0 -39.0 200.0 499.0 815.0 208.0 
77.0 252.0 173.0 -156.0 -39.0 200.0 499.0 815.0 208.0 378.0 
77.0 252.0 173.0 -156.0 -39.0 200.0 499.0 815.0 208.0 378.0 134.0 
77.0 252.0 173.0 -156.0 -39.0 200.0 499.0 815.0 208.0 378.0 134.0 -122.0 
86.0 
86.0 277.0 
86.0 277.0 188.0 
86.0 277.0 188.0 -163.0 
86.0 277.0 188.0 -163.0 -46.0 
86.0 277.0 188.0 -163.0 -46.0 214.0 
86.0 277.0 188.0 -163.0 -46.0 214.0 499.0 
86.0 277.0 188.0 -163.0 -46.0 214.0 499.0 815.0 
86.0 277.0 188.0 -163.0 -46.0 214.0 499.0 815.0 208.0 
86.0 277.0 188.0 -163.0 -46.0 214.0 499.0 815.0 208.0 373.0 
86.0 277.0 188.0 -163.0 -46.0 214.0 499.0 815.0 208.0 373.0 129.0 
86.0 277.0 188.0 -163.0 -46.0 214.0 499.0 815.0 208.0 373.0 129.0 -127.0 
97.0 
97.0 296.0 
97.0 296.0 197.0 
97.0 296.0 197.0 -180.0 
97.0 296.0 197.0 -180.0 -48.0 
97.0 296.0 197.0 -180.0 -48.0 234.0 
97.0 296.0 197.0 -180.0 -48.0 234.0 490.0 
97.0 296.0 197.0 -180.0 -48.0 234.0 490.0 799.0 
97.0 296.0 197.0 -180.0 -48.0 234.0 490.0 799.0 199.0 
97.0 296.0 197.0 -180.0 -48.0 234.0 490.0 799.0 199.0 373.0 
97.0 296.0 197.0 -180.0 -48.0 234.0 490.0 799.0 199.0 373.0 125.0 
97.0 296.0 197.0 -180.0 -48.0 234.0 490.0 799.0 199.0 373.0 125.0 -125.0 
87.0 
87.0 291.0 
87.0 291.0 202.0 
87.0 291.0 202.0 -196.0 
87.0 291.0 202.0 -196.0 -48.0 
87.0 291.0 202.0 -196.0 -48.0 249.0 
87.0 291.0 202.0 -196.0 -48.0 249.0 490.0 
87.0 291.0 202.0 -196.0 -48.0 249.0 490.0 789.0 
87.0 291.0 202.0 -196.0 -48.0 249.0 490.0 789.0 194.0 
87.0 291.0 202.0 -196.0 -48.0 249.0 490.0 789.0 194.0 364.0 
87.0 291.0 202.0 -196.0 -48.0 249.0 490.0 789.0 194.0 364.0 121.0 
87.0 291.0 202.0 -196.0 -48.0 249.0 490.0 789.0 194.0 364.0 121.0 -129.0 
63.0 
63.0 306.0 
63.0 306.0 241.0 
63.0 306.0 241.0 -189.0 
63.0 306.0 241.0 -189.0 -56.0 
63.0 306.0 241.0 -189.0 -56.0 249.0 
63.0 306.0 241.0 -189.0 -56.0 249.0 490.0 
63.0 306.0 241.0 -189.0 -56.0 249.0 490.0 779.0 
63.0 306.0 241.0 -189.0 -56.0 249.0 490.0 779.0 190.0 
63.0 306.0 241.0 -189.0 -56.0 249.0 490.0 779.0 190.0 364.0 
63.0 306.0 241.0 -189.0 -56.0 249.0 490.0 779.0 190.0 364.0 116.0 
63.0 306.0 241.0 -189.0 -56.0 249.0 490.0 779.0 190.0 364.0 116.0 -134.0 
58.0 
58.0 316.0 
58.0 316.0 256.0 
58.0 316.0 256.0 -184.0 
58.0 316.0 256.0 -184.0 -87.0 
58.0 316.0 256.0 -184.0 -87.0 275.0 
58.0 316.0 256.0 -184.0 -87.0 275.0 499.0 
58.0 316.0 256.0 -184.0 -87.0 275.0 499.0 770.0 
58.0 316.0 256.0 -184.0 -87.0 275.0 499.0 770.0 180.0 
58.0 316.0 256.0 -184.0 -87.0 275.0 499.0 770.0 180.0 369.0 
58.0 316.0 256.0 -184.0 -87.0 275.0 499.0 770.0 180.0 369.0 125.0 
58.0 316.0 256.0 -184.0 -87.0 275.0 499.0 770.0 180.0 369.0 125.0 -120.0 
68.0 
68.0 331.0 
68.0 331.0 261.0 
68.0 331.0 261.0 -186.0 
68.0 331.0 261.0 -186.0 -97.0 
68.0 331.0 261.0 -186.0 -97.0 288.0 
68.0 331.0 261.0 -186.0 -97.0 288.0 514.0 
68.0 331.0 261.0 -186.0 -97.0 288.0 514.0 765.0 
68.0 331.0 261.0 -186.0 -97.0 288.0 514.0 765.0 180.0 
68.0 331.0 261.0 -186.0 -97.0 288.0 514.0 765.0 180.0 363.0 
68.0 331.0 261.0 -186.0 -97.0 288.0 514.0 765.0 180.0 363.0 125.0 
68.0 331.0 261.0 -186.0 -97.0 288.0 514.0 765.0 180.0 363.0 125.0 -120.0 
78.0 
78.0 370.0 
78.0 370.0 291.0 
78.0 370.0 291.0 -198.0 
78.0 370.0 291.0 -198.0 -95.0 
78.0 370.0 291.0 -198.0 -95.0 297.0 
78.0 370.0 291.0 -198.0 -95.0 297.0 508.0 
78.0 370.0 291.0 -198.0 -95.0 297.0 508.0 750.0 
78.0 370.0 291.0 -198.0 -95.0 297.0 508.0 750.0 175.0 
78.0 370.0 291.0 -198.0 -95.0 297.0 508.0 750.0 175.0 372.0 
78.0 370.0 291.0 -198.0 -95.0 297.0 508.0 750.0 175.0 372.0 135.0 
78.0 370.0 291.0 -198.0 -95.0 297.0 508.0 750.0 175.0 372.0 135.0 -115.0 
87.0 
87.0 395.0 
87.0 395.0 306.0 
87.0 395.0 306.0 -223.0 
87.0 395.0 306.0 -223.0 -104.0 
87.0 395.0 306.0 -223.0 -104.0 332.0 
87.0 395.0 306.0 -223.0 -104.0 332.0 489.0 
87.0 395.0 306.0 -223.0 -104.0 332.0 489.0 739.0 
87.0 395.0 306.0 -223.0 -104.0 332.0 489.0 739.0 185.0 
87.0 395.0 306.0 -223.0 -104.0 332.0 489.0 739.0 185.0 382.0 
87.0 395.0 306.0 -223.0 -104.0 332.0 489.0 739.0 185.0 382.0 145.0 
87.0 395.0 306.0 -223.0 -104.0 332.0 489.0 739.0 185.0 382.0 145.0 -110.0 
102.0 
102.0 439.0 
102.0 439.0 335.0 
102.0 439.0 335.0 -240.0 
102.0 439.0 335.0 -240.0 -107.0 
102.0 439.0 335.0 -240.0 -107.0 351.0 
102.0 439.0 335.0 -240.0 -107.0 351.0 454.0 
102.0 439.0 335.0 -240.0 -107.0 351.0 454.0 730.0 
102.0 439.0 335.0 -240.0 -107.0 351.0 454.0 730.0 209.0 
102.0 439.0 335.0 -240.0 -107.0 351.0 454.0 730.0 209.0 415.0 
102.0 439.0 335.0 -240.0 -107.0 351.0 454.0 730.0 209.0 415.0 185.0 
102.0 439.0 335.0 -240.0 -107.0 351.0 454.0 730.0 209.0 415.0 185.0 -70.0 
126.0 
126.0 458.0 
126.0 458.0 330.0 
126.0 458.0 330.0 -269.0 
126.0 458.0 330.0 -269.0 -114.0 
126.0 458.0 330.0 -269.0 -114.0 388.0 
126.0 458.0 330.0 -269.0 -114.0 388.0 445.0 
126.0 458.0 330.0 -269.0 -114.0 388.0 445.0 735.0 
126.0 458.0 330.0 -269.0 -114.0 388.0 445.0 735.0 229.0 
126.0 458.0 330.0 -269.0 -114.0 388.0 445.0 735.0 229.0 464.0 
126.0 458.0 330.0 -269.0 -114.0 388.0 445.0 735.0 229.0 464.0 234.0 
126.0 458.0 330.0 -269.0 -114.0 388.0 445.0 735.0 229.0 464.0 234.0 -36.0 
136.0 
136.0 468.0 
136.0 468.0 330.0 
136.0 468.0 330.0 -291.0 
136.0 468.0 330.0 -291.0 -100.0 
136.0 468.0 330.0 -291.0 -100.0 395.0 
136.0 468.0 330.0 -291.0 -100.0 395.0 449.0 
136.0 468.0 330.0 -291.0 -100.0 395.0 449.0 768.0 
136.0 468.0 330.0 -291.0 -100.0 395.0 449.0 768.0 278.0 
136.0 468.0 330.0 -291.0 -100.0 395.0 449.0 768.0 278.0 493.0 
136.0 468.0 330.0 -291.0 -100.0 395.0 449.0 768.0 278.0 493.0 258.0 
136.0 468.0 330.0 -291.0 -100.0 395.0 449.0 768.0 278.0 493.0 258.0 -16.0 
156.0 
156.0 512.0 
156.0 512.0 355.0 
156.0 512.0 355.0 -301.0 
156.0 512.0 355.0 -301.0 -95.0 
156.0 512.0 355.0 -301.0 -95.0 400.0 
156.0 512.0 355.0 -301.0 -95.0 400.0 445.0 
156.0 512.0 355.0 -301.0 -95.0 400.0 445.0 826.0 
156.0 512.0 355.0 -301.0 -95.0 400.0 445.0 826.0 346.0 
156.0 512.0 355.0 -301.0 -95.0 400.0 445.0 826.0 346.0 542.0 
156.0 512.0 355.0 -301.0 -95.0 400.0 445.0 826.0 346.0 542.0 302.0 
156.0 512.0 355.0 -301.0 -95.0 400.0 445.0 826.0 346.0 542.0 302.0 7.0 
185.0 
185.0 488.0 
185.0 488.0 301.0 
185.0 488.0 301.0 -333.0 
185.0 488.0 301.0 -333.0 -97.0 
185.0 488.0 301.0 -333.0 -97.0 434.0 
185.0 488.0 301.0 -333.0 -97.0 434.0 434.0 
185.0 488.0 301.0 -333.0 -97.0 434.0 434.0 869.0 
185.0 488.0 301.0 -333.0 -97.0 434.0 434.0 869.0 414.0 
185.0 488.0 301.0 -333.0 -97.0 434.0 434.0 869.0 414.0 615.0 
185.0 488.0 301.0 -333.0 -97.0 434.0 434.0 869.0 414.0 615.0 361.0 
185.0 488.0 301.0 -333.0 -97.0 434.0 434.0 869.0 414.0 615.0 361.0 51.0 
200.0 
200.0 429.0 
200.0 429.0 228.0 
200.0 429.0 228.0 -335.0 
200.0 429.0 228.0 -335.0 -56.0 
200.0 429.0 228.0 -335.0 -56.0 395.0 
200.0 429.0 228.0 -335.0 -56.0 395.0 405.0 
200.0 429.0 228.0 -335.0 -56.0 395.0 405.0 923.0 
200.0 429.0 228.0 -335.0 -56.0 395.0 405.0 923.0 507.0 
200.0 429.0 228.0 -335.0 -56.0 395.0 405.0 923.0 507.0 679.0 
200.0 429.0 228.0 -335.0 -56.0 395.0 405.0 923.0 507.0 679.0 409.0 
200.0 429.0 228.0 -335.0 -56.0 395.0 405.0 923.0 507.0 679.0 409.0 80.0 
239.0 
239.0 356.0 
239.0 356.0 117.0 
239.0 356.0 117.0 -313.0 
239.0 356.0 117.0 -313.0 -12.0 
239.0 356.0 117.0 -313.0 -12.0 329.0 
239.0 356.0 117.0 -313.0 -12.0 329.0 400.0 
239.0 356.0 117.0 -313.0 -12.0 329.0 400.0 1006.0 
239.0 356.0 117.0 -313.0 -12.0 329.0 400.0 1006.0 619.0 
239.0 356.0 117.0 -313.0 -12.0 329.0 400.0 1006.0 619.0 776.0 
239.0 356.0 117.0 -313.0 -12.0 329.0 400.0 1006.0 619.0 776.0 478.0 
239.0 356.0 117.0 -313.0 -12.0 329.0 400.0 1006.0 619.0 776.0 478.0 129.0 
287.0 
287.0 248.0 
287.0 248.0 -39.0 
287.0 248.0 -39.0 -296.0 
287.0 248.0 -39.0 -296.0 62.0 
287.0 248.0 -39.0 -296.0 62.0 237.0 
287.0 248.0 -39.0 -296.0 62.0 237.0 419.0 
287.0 248.0 -39.0 -296.0 62.0 237.0 419.0 1152.0 
287.0 248.0 -39.0 -296.0 62.0 237.0 419.0 1152.0 766.0 
287.0 248.0 -39.0 -296.0 62.0 237.0 419.0 1152.0 766.0 859.0 
287.0 248.0 -39.0 -296.0 62.0 237.0 419.0 1152.0 766.0 859.0 517.0 
287.0 248.0 -39.0 -296.0 62.0 237.0 419.0 1152.0 766.0 859.0 517.0 146.0 
312.0 
312.0 122.0 
312.0 122.0 -189.0 
312.0 122.0 -189.0 -268.0 
312.0 122.0 -189.0 -268.0 163.0 
312.0 122.0 -189.0 -268.0 163.0 104.0 
312.0 122.0 -189.0 -268.0 163.0 104.0 444.0 
312.0 122.0 -189.0 -268.0 163.0 104.0 444.0 1338.0 
312.0 122.0 -189.0 -268.0 163.0 104.0 444.0 1338.0 951.0 
312.0 122.0 -189.0 -268.0 163.0 104.0 444.0 1338.0 951.0 947.0 
312.0 122.0 -189.0 -268.0 163.0 104.0 444.0 1338.0 951.0 947.0 531.0 
312.0 122.0 -189.0 -268.0 163.0 104.0 444.0 1338.0 951.0 947.0 531.0 126.0 
346.0 
346.0 68.0 
346.0 68.0 -276.0 
346.0 68.0 -276.0 -217.0 
346.0 68.0 -276.0 -217.0 251.0 
346.0 68.0 -276.0 -217.0 251.0 -32.0 
346.0 68.0 -276.0 -217.0 251.0 -32.0 453.0 
346.0 68.0 -276.0 -217.0 251.0 -32.0 453.0 1450.0 
346.0 68.0 -276.0 -217.0 251.0 -32.0 453.0 1450.0 1044.0 
346.0 68.0 -276.0 -217.0 251.0 -32.0 453.0 1450.0 1044.0 1064.0 
346.0 68.0 -276.0 -217.0 251.0 -32.0 453.0 1450.0 1044.0 1064.0 570.0 
346.0 68.0 -276.0 -217.0 251.0 -32.0 453.0 1450.0 1044.0 1064.0 570.0 122.0 
370.0 
370.0 24.0 
370.0 24.0 -345.0 
370.0 24.0 -345.0 -207.0 
370.0 24.0 -345.0 -207.0 312.0 
370.0 24.0 -345.0 -207.0 312.0 -103.0 
370.0 24.0 -345.0 -207.0 312.0 -103.0 453.0 
370.0 24.0 -345.0 -207.0 312.0 -103.0 453.0 1522.0 
370.0 24.0 -345.0 -207.0 312.0 -103.0 453.0 1522.0 1102.0 
370.0 24.0 -345.0 -207.0 312.0 -103.0 453.0 1522.0 1102.0 1093.0 
370.0 24.0 -345.0 -207.0 312.0 -103.0 453.0 1522.0 1102.0 1093.0 551.0 
370.0 24.0 -345.0 -207.0 312.0 -103.0 453.0 1522.0 1102.0 1093.0 551.0 87.0 
351.0 
351.0 -29.0 
351.0 -29.0 -380.0 
351.0 -29.0 -380.0 -197.0 
351.0 -29.0 -380.0 -197.0 358.0 
351.0 -29.0 -380.0 -197.0 358.0 -159.0 
351.0 -29.0 -380.0 -197.0 358.0 -159.0 434.0 
351.0 -29.0 -380.0 -197.0 358.0 -159.0 434.0 1537.0 
351.0 -29.0 -380.0 -197.0 358.0 -159.0 434.0 1537.0 1107.0 
351.0 -29.0 -380.0 -197.0 358.0 -159.0 434.0 1537.0 1107.0 1102.0 
351.0 -29.0 -380.0 -197.0 358.0 -159.0 434.0 1537.0 1107.0 1102.0 527.0 
351.0 -29.0 -380.0 -197.0 358.0 -159.0 434.0 1537.0 1107.0 1102.0 527.0 68.0 
326.0 
326.0 -73.0 
326.0 -73.0 -400.0 
326.0 -73.0 -400.0 -161.0 
326.0 -73.0 -400.0 -161.0 366.0 
326.0 -73.0 -400.0 -161.0 366.0 -204.0 
326.0 -73.0 -400.0 -161.0 366.0 -204.0 375.0 
326.0 -73.0 -400.0 -161.0 366.0 -204.0 375.0 1395.0 
326.0 -73.0 -400.0 -161.0 366.0 -204.0 375.0 1395.0 961.0 
326.0 -73.0 -400.0 -161.0 366.0 -204.0 375.0 1395.0 961.0 1078.0 
326.0 -73.0 -400.0 -161.0 366.0 -204.0 375.0 1395.0 961.0 1078.0 502.0 
326.0 -73.0 -400.0 -161.0 366.0 -204.0 375.0 1395.0 961.0 1078.0 502.0 58.0 
312.0 
312.0 -131.0 
312.0 -131.0 -444.0 
312.0 -131.0 -444.0 -126.0 
312.0 -131.0 -444.0 -126.0 363.0 
312.0 -131.0 -444.0 -126.0 363.0 -236.0 
312.0 -131.0 -444.0 -126.0 363.0 -236.0 322.0 
312.0 -131.0 -444.0 -126.0 363.0 -236.0 322.0 1170.0 
312.0 -131.0 -444.0 -126.0 363.0 -236.0 322.0 1170.0 766.0 
312.0 -131.0 -444.0 -126.0 363.0 -236.0 322.0 1170.0 766.0 941.0 
312.0 -131.0 -444.0 -126.0 363.0 -236.0 322.0 1170.0 766.0 941.0 400.0 
312.0 -131.0 -444.0 -126.0 363.0 -236.0 322.0 1170.0 766.0 941.0 400.0 0.0 
326.0 
326.0 -180.0 
326.0 -180.0 -507.0 
326.0 -180.0 -507.0 -90.0 
326.0 -180.0 -507.0 -90.0 378.0 
326.0 -180.0 -507.0 -90.0 378.0 -287.0 
326.0 -180.0 -507.0 -90.0 378.0 -287.0 252.0 
326.0 -180.0 -507.0 -90.0 378.0 -287.0 252.0 935.0 
326.0 -180.0 -507.0 -90.0 378.0 -287.0 252.0 935.0 575.0 
326.0 -180.0 -507.0 -90.0 378.0 -287.0 252.0 935.0 575.0 775.0 
326.0 -180.0 -507.0 -90.0 378.0 -287.0 252.0 935.0 575.0 775.0 302.0 
326.0 -180.0 -507.0 -90.0 378.0 -287.0 252.0 935.0 575.0 775.0 302.0 -47.0 
322.0 
322.0 -224.0 
322.0 -224.0 -546.0 
322.0 -224.0 -546.0 -73.0 
322.0 -224.0 -546.0 -73.0 417.0 
322.0 -224.0 -546.0 -73.0 417.0 -343.0 
322.0 -224.0 -546.0 -73.0 417.0 -343.0 194.0 
322.0 -224.0 -546.0 -73.0 417.0 -343.0 194.0 759.0 
322.0 -224.0 -546.0 -73.0 417.0 -343.0 194.0 759.0 419.0 
322.0 -224.0 -546.0 -73.0 417.0 -343.0 194.0 759.0 419.0 634.0 
322.0 -224.0 -546.0 -73.0 417.0 -343.0 194.0 759.0 419.0 634.0 214.0 
322.0 -224.0 -546.0 -73.0 417.0 -343.0 194.0 759.0 419.0 634.0 214.0 -91.0 
322.0 
322.0 -253.0 
322.0 -253.0 -575.0 
322.0 -253.0 -575.0 -48.0 
322.0 -253.0 -575.0 -48.0 434.0 
322.0 -253.0 -575.0 -48.0 434.0 -384.0 
322.0 -253.0 -575.0 -48.0 434.0 -384.0 150.0 
322.0 -253.0 -575.0 -48.0 434.0 -384.0 150.0 661.0 
322.0 -253.0 -575.0 -48.0 434.0 -384.0 150.0 661.0 317.0 
322.0 -253.0 -575.0 -48.0 434.0 -384.0 150.0 661.0 317.0 506.0 
322.0 -253.0 -575.0 -48.0 434.0 -384.0 150.0 661.0 317.0 506.0 136.0 
322.0 -253.0 -575.0 -48.0 434.0 -384.0 150.0 661.0 317.0 506.0 136.0 -145.0 
287.0 
287.0 -283.0 
287.0 -283.0 -570.0 
287.0 -283.0 -570.0 -34.0 
287.0 -283.0 -570.0 -34.0 448.0 
287.0 -283.0 -570.0 -34.0 448.0 -413.0 
287.0 -283.0 -570.0 -34.0 448.0 -413.0 135.0 
287.0 -283.0 -570.0 -34.0 448.0 -413.0 135.0 583.0 
287.0 -283.0 -570.0 -34.0 448.0 -413.0 135.0 583.0 214.0 
287.0 -283.0 -570.0 -34.0 448.0 -413.0 135.0 583.0 214.0 433.0 
287.0 -283.0 -570.0 -34.0 448.0 -413.0 135.0 583.0 214.0 433.0 102.0 
287.0 -283.0 -570.0 -34.0 448.0 -413.0 135.0 583.0 214.0 433.0 102.0 -150.0 
258.0 
258.0 -330.0 
258.0 -330.0 -590.0 
258.0 -330.0 -590.0 -2.0 
258.0 -330.0 -590.0 -2.0 429.0 
258.0 -330.0 -590.0 -2.0 429.0 -426.0 
258.0 -330.0 -590.0 -2.0 429.0 -426.0 135.0 
258.0 -330.0 -590.0 -2.0 429.0 -426.0 135.0 471.0 
258.0 -330.0 -590.0 -2.0 429.0 -426.0 135.0 471.0 92.0 
258.0 -330.0 -590.0 -2.0 429.0 -426.0 135.0 471.0 92.0 340.0 
258.0 -330.0 -590.0 -2.0 429.0 -426.0 135.0 471.0 92.0 340.0 39.0 
258.0 -330.0 -590.0 -2.0 429.0 -426.0 135.0 471.0 92.0 340.0 39.0 -189.0 
224.0 
224.0 -355.0 
224.0 -355.0 -580.0 
224.0 -355.0 -580.0 35.0 
224.0 -355.0 -580.0 35.0 423.0 
224.0 -355.0 -580.0 35.0 423.0 -461.0 
224.0 -355.0 -580.0 35.0 423.0 -461.0 150.0 
224.0 -355.0 -580.0 35.0 423.0 -461.0 150.0 339.0 
224.0 -355.0 -580.0 35.0 423.0 -461.0 150.0 339.0 -43.0 
224.0 -355.0 -580.0 35.0 423.0 -461.0 150.0 339.0 -43.0 232.0 
224.0 -355.0 -580.0 35.0 423.0 -461.0 150.0 339.0 -43.0 232.0 -24.0 
224.0 -355.0 -580.0 35.0 423.0 -461.0 150.0 339.0 -43.0 232.0 -24.0 -233.0 
165.0 
165.0 -369.0 
165.0 -369.0 -536.0 
165.0 -369.0 -536.0 64.0 
165.0 -369.0 -536.0 64.0 401.0 
165.0 -369.0 -536.0 64.0 401.0 -468.0 
165.0 -369.0 -536.0 64.0 401.0 -468.0 169.0 
165.0 -369.0 -536.0 64.0 401.0 -468.0 169.0 188.0 
165.0 -369.0 -536.0 64.0 401.0 -468.0 169.0 188.0 -200.0 
165.0 -369.0 -536.0 64.0 401.0 -468.0 169.0 188.0 -200.0 124.0 
165.0 -369.0 -536.0 64.0 401.0 -468.0 169.0 188.0 -200.0 124.0 -87.0 
165.0 -369.0 -536.0 64.0 401.0 -468.0 169.0 188.0 -200.0 124.0 -87.0 -272.0 
131.0 
131.0 -360.0 
131.0 -360.0 -492.0 
131.0 -360.0 -492.0 101.0 
131.0 -360.0 -492.0 101.0 350.0 
131.0 -360.0 -492.0 101.0 350.0 -454.0 
131.0 -360.0 -492.0 101.0 350.0 -454.0 208.0 
131.0 -360.0 -492.0 101.0 350.0 -454.0 208.0 60.0 
131.0 -360.0 -492.0 101.0 350.0 -454.0 208.0 60.0 -351.0 
131.0 -360.0 -492.0 101.0 350.0 -454.0 208.0 60.0 -351.0 -2.0 
131.0 -360.0 -492.0 101.0 350.0 -454.0 208.0 60.0 -351.0 -2.0 -169.0 
131.0 -360.0 -492.0 101.0 350.0 -454.0 208.0 60.0 -351.0 -2.0 -169.0 -319.0 
92.0 
92.0 -384.0 
92.0 -384.0 -477.0 
92.0 -384.0 -477.0 113.0 
92.0 -384.0 -477.0 113.0 311.0 
92.0 -384.0 -477.0 113.0 311.0 -427.0 
92.0 -384.0 -477.0 113.0 311.0 -427.0 335.0 
92.0 -384.0 -477.0 113.0 311.0 -427.0 335.0 40.0 
92.0 -384.0 -477.0 113.0 311.0 -427.0 335.0 40.0 -429.0 
92.0 -384.0 -477.0 113.0 311.0 -427.0 335.0 40.0 -429.0 -114.0 
92.0 -384.0 -477.0 113.0 311.0 -427.0 335.0 40.0 -429.0 -114.0 -243.0 
92.0 -384.0 -477.0 113.0 311.0 -427.0 335.0 40.0 -429.0 -114.0 -243.0 -372.0 
53.0 
53.0 -389.0 
53.0 -389.0 -443.0 
53.0 -389.0 -443.0 145.0 
53.0 -389.0 -443.0 145.0 284.0 
53.0 -389.0 -443.0 145.0 284.0 -432.0 
53.0 -389.0 -443.0 145.0 284.0 -432.0 394.0 
53.0 -389.0 -443.0 145.0 284.0 -432.0 394.0 -17.0 
53.0 -389.0 -443.0 145.0 284.0 -432.0 394.0 -17.0 -527.0 
53.0 -389.0 -443.0 145.0 284.0 -432.0 394.0 -17.0 -527.0 -192.0 
53.0 -389.0 -443.0 145.0 284.0 -432.0 394.0 -17.0 -527.0 -192.0 -301.0 
53.0 -389.0 -443.0 145.0 284.0 -432.0 394.0 -17.0 -527.0 -192.0 -301.0 -421.0 
19.0 
19.0 -379.0 
19.0 -379.0 -399.0 
19.0 -379.0 -399.0 167.0 
19.0 -379.0 -399.0 167.0 247.0 
19.0 -379.0 -399.0 167.0 247.0 -417.0 
19.0 -379.0 -399.0 167.0 247.0 -417.0 452.0 
19.0 -379.0 -399.0 167.0 247.0 -417.0 452.0 -82.0 
19.0 -379.0 -399.0 167.0 247.0 -417.0 452.0 -82.0 -610.0 
19.0 -379.0 -399.0 167.0 247.0 -417.0 452.0 -82.0 -610.0 -280.0 
19.0 -379.0 -399.0 167.0 247.0 -417.0 452.0 -82.0 -610.0 -280.0 -369.0 
19.0 -379.0 -399.0 167.0 247.0 -417.0 452.0 -82.0 -610.0 -280.0 -369.0 -470.0 
0.0 
0.0 -379.0 
0.0 -379.0 -379.0 
0.0 -379.0 -379.0 179.0 
0.0 -379.0 -379.0 179.0 208.0 
0.0 -379.0 -379.0 179.0 208.0 -390.0 
0.0 -379.0 -379.0 179.0 208.0 -390.0 550.0 
0.0 -379.0 -379.0 179.0 208.0 -390.0 550.0 -82.0 
0.0 -379.0 -379.0 179.0 208.0 -390.0 550.0 -82.0 -649.0 
0.0 -379.0 -379.0 179.0 208.0 -390.0 550.0 -82.0 -649.0 -353.0 
0.0 -379.0 -379.0 179.0 208.0 -390.0 550.0 -82.0 -649.0 -353.0 -423.0 
0.0 -379.0 -379.0 179.0 208.0 -390.0 550.0 -82.0 -649.0 -353.0 -423.0 -509.0 
-34.0 
-34.0 -355.0 
-34.0 -355.0 -319.0 
-34.0 -355.0 -319.0 189.0 
-34.0 -355.0 -319.0 189.0 189.0 
-34.0 -355.0 -319.0 189.0 189.0 -380.0 
-34.0 -355.0 -319.0 189.0 189.0 -380.0 643.0 
-34.0 -355.0 -319.0 189.0 189.0 -380.0 643.0 -73.0 
-34.0 -355.0 -319.0 189.0 189.0 -380.0 643.0 -73.0 -678.0 
-34.0 -355.0 -319.0 189.0 189.0 -380.0 643.0 -73.0 -678.0 -402.0 
-34.0 -355.0 -319.0 189.0 189.0 -380.0 643.0 -73.0 -678.0 -402.0 -467.0 
-34.0 -355.0 -319.0 189.0 189.0 -380.0 643.0 -73.0 -678.0 -402.0 -467.0 -548.0 
-68.0 
-68.0 -321.0 
-68.0 -321.0 -251.0 
-68.0 -321.0 -251.0 193.0 
-68.0 -321.0 -251.0 193.0 141.0 
-68.0 -321.0 -251.0 193.0 141.0 -339.0 
-68.0 -321.0 -251.0 193.0 141.0 -339.0 721.0 
-68.0 -321.0 -251.0 193.0 141.0 -339.0 721.0 -48.0 
-68.0 -321.0 -251.0 193.0 141.0 -339.0 721.0 -48.0 -673.0 
-68.0 -321.0 -251.0 193.0 141.0 -339.0 721.0 -48.0 -673.0 -441.0 
-68.0 -321.0 -251.0 193.0 141.0 -339.0 721.0 -48.0 -673.0 -441.0 -511.0 
-68.0 -321.0 -251.0 193.0 141.0 -339.0 721.0 -48.0 -673.0 -441.0 -511.0 -587.0 
-107.0 
-107.0 -286.0 
-107.0 -286.0 -178.0 
-107.0 -286.0 -178.0 193.0 
-107.0 -286.0 -178.0 193.0 90.0 
-107.0 -286.0 -178.0 193.0 90.0 -288.0 
-107.0 -286.0 -178.0 193.0 90.0 -288.0 799.0 
-107.0 -286.0 -178.0 193.0 90.0 -288.0 799.0 -9.0 
-107.0 -286.0 -178.0 193.0 90.0 -288.0 799.0 -9.0 -653.0 
-107.0 -286.0 -178.0 193.0 90.0 -288.0 799.0 -9.0 -653.0 -450.0 
-107.0 -286.0 -178.0 193.0 90.0 -288.0 799.0 -9.0 -653.0 -450.0 -526.0 
-107.0 -286.0 -178.0 193.0 90.0 -288.0 799.0 -9.0 -653.0 -450.0 -526.0 -606.0 
-146.0 
-146.0 -272.0 
-146.0 -272.0 -125.0 
-146.0 -272.0 -125.0 195.0 
-146.0 -272.0 -125.0 195.0 33.0 
-146.0 -272.0 -125.0 195.0 33.0 -233.0 
-146.0 -272.0 -125.0 195.0 33.0 -233.0 906.0 
-146.0 -272.0 -125.0 195.0 33.0 -233.0 906.0 38.0 
-146.0 -272.0 -125.0 195.0 33.0 -233.0 906.0 38.0 -629.0 
-146.0 -272.0 -125.0 195.0 33.0 -233.0 906.0 38.0 -629.0 -442.0 
-146.0 -272.0 -125.0 195.0 33.0 -233.0 906.0 38.0 -629.0 -442.0 -535.0 
-146.0 -272.0 -125.0 195.0 33.0 -233.0 906.0 38.0 -629.0 -442.0 -535.0 -620.0 
-161.0 
-161.0 -243.0 
-161.0 -243.0 -80.0 
-161.0 -243.0 -80.0 207.0 
-161.0 -243.0 -80.0 207.0 -11.0 
-161.0 -243.0 -80.0 207.0 -11.0 -199.0 
-161.0 -243.0 -80.0 207.0 -11.0 -199.0 988.0 
-161.0 -243.0 -80.0 207.0 -11.0 -199.0 988.0 68.0 
-161.0 -243.0 -80.0 207.0 -11.0 -199.0 988.0 68.0 -605.0 
-161.0 -243.0 -80.0 207.0 -11.0 -199.0 988.0 68.0 -605.0 -432.0 
-161.0 -243.0 -80.0 207.0 -11.0 -199.0 988.0 68.0 -605.0 -432.0 -550.0 
-161.0 -243.0 -80.0 207.0 -11.0 -199.0 988.0 68.0 -605.0 -432.0 -550.0 -645.0 
-165.0 
-165.0 -203.0 
-165.0 -203.0 -37.0 
-165.0 -203.0 -37.0 200.0 
-165.0 -203.0 -37.0 200.0 -41.0 
-165.0 -203.0 -37.0 200.0 -41.0 -162.0 
-165.0 -203.0 -37.0 200.0 -41.0 -162.0 1013.0 
-165.0 -203.0 -37.0 200.0 -41.0 -162.0 1013.0 77.0 
-165.0 -203.0 -37.0 200.0 -41.0 -162.0 1013.0 77.0 -595.0 
-165.0 -203.0 -37.0 200.0 -41.0 -162.0 1013.0 77.0 -595.0 -412.0 
-165.0 -203.0 -37.0 200.0 -41.0 -162.0 1013.0 77.0 -595.0 -412.0 -535.0 
-165.0 -203.0 -37.0 200.0 -41.0 -162.0 1013.0 77.0 -595.0 -412.0 -535.0 -635.0 
-185.0 
-185.0 -139.0 
-185.0 -139.0 45.0 
-185.0 -139.0 45.0 183.0 
-185.0 -139.0 45.0 183.0 -65.0 
-185.0 -139.0 45.0 183.0 -65.0 -121.0 
-185.0 -139.0 45.0 183.0 -65.0 -121.0 949.0 
-185.0 -139.0 45.0 183.0 -65.0 -121.0 949.0 72.0 
-185.0 -139.0 45.0 183.0 -65.0 -121.0 949.0 72.0 -585.0 
-185.0 -139.0 45.0 183.0 -65.0 -121.0 949.0 72.0 -585.0 -393.0 
-185.0 -139.0 45.0 183.0 -65.0 -121.0 949.0 72.0 -585.0 -393.0 -521.0 
-185.0 -139.0 45.0 183.0 -65.0 -121.0 949.0 72.0 -585.0 -393.0 -521.0 -625.0 
-190.0 
-190.0 -95.0 
-190.0 -95.0 94.0 
-190.0 -95.0 94.0 162.0 
-190.0 -95.0 94.0 162.0 -115.0 
-190.0 -95.0 94.0 162.0 -115.0 -46.0 
-190.0 -95.0 94.0 162.0 -115.0 -46.0 876.0 
-190.0 -95.0 94.0 162.0 -115.0 -46.0 876.0 67.0 
-190.0 -95.0 94.0 162.0 -115.0 -46.0 876.0 67.0 -561.0 
-190.0 -95.0 94.0 162.0 -115.0 -46.0 876.0 67.0 -561.0 -373.0 
-190.0 -95.0 94.0 162.0 -115.0 -46.0 876.0 67.0 -561.0 -373.0 -501.0 
-190.0 -95.0 94.0 162.0 -115.0 -46.0 876.0 67.0 -561.0 -373.0 -501.0 -610.0 
-190.0 
-190.0 -41.0 
-190.0 -41.0 147.0 
-190.0 -41.0 147.0 142.0 
-190.0 -41.0 147.0 142.0 -142.0 
-190.0 -41.0 147.0 142.0 -142.0 0.0 
-190.0 -41.0 147.0 142.0 -142.0 0.0 852.0 
-190.0 -41.0 147.0 142.0 -142.0 0.0 852.0 76.0 
-190.0 -41.0 147.0 142.0 -142.0 0.0 852.0 76.0 -536.0 
-190.0 -41.0 147.0 142.0 -142.0 0.0 852.0 76.0 -536.0 -334.0 
-190.0 -41.0 147.0 142.0 -142.0 0.0 852.0 76.0 -536.0 -334.0 -462.0 
-190.0 -41.0 147.0 142.0 -142.0 0.0 852.0 76.0 -536.0 -334.0 -462.0 -576.0 
-185.0 
-185.0 11.0 
-185.0 11.0 197.0 
-185.0 11.0 197.0 116.0 
-185.0 11.0 197.0 116.0 -169.0 
-185.0 11.0 197.0 116.0 -169.0 52.0 
-185.0 11.0 197.0 116.0 -169.0 52.0 842.0 
-185.0 11.0 197.0 116.0 -169.0 52.0 842.0 90.0 
-185.0 11.0 197.0 116.0 -169.0 52.0 842.0 90.0 -512.0 
-185.0 11.0 197.0 116.0 -169.0 52.0 842.0 90.0 -512.0 -301.0 
-185.0 11.0 197.0 116.0 -169.0 52.0 842.0 90.0 -512.0 -301.0 -432.0 
-185.0 11.0 197.0 116.0 -169.0 52.0 842.0 90.0 -512.0 -301.0 -432.0 -555.0 
-185.0 
-185.0 65.0 
-185.0 65.0 250.0 
-185.0 65.0 250.0 86.0 
-185.0 65.0 250.0 86.0 -191.0 
-185.0 65.0 250.0 86.0 -191.0 104.0 
-185.0 65.0 250.0 86.0 -191.0 104.0 777.0 
-185.0 65.0 250.0 86.0 -191.0 104.0 777.0 90.0 
-185.0 65.0 250.0 86.0 -191.0 104.0 777.0 90.0 -488.0 
-185.0 65.0 250.0 86.0 -191.0 104.0 777.0 90.0 -488.0 -272.0 
-185.0 65.0 250.0 86.0 -191.0 104.0 777.0 90.0 -488.0 -272.0 -407.0 
-185.0 65.0 250.0 86.0 -191.0 104.0 777.0 90.0 -488.0 -272.0 -407.0 -525.0 
-195.0 
-195.0 89.0 
-195.0 89.0 285.0 
-195.0 89.0 285.0 60.0 
-195.0 89.0 285.0 60.0 -218.0 
-195.0 89.0 285.0 60.0 -218.0 158.0 
-195.0 89.0 285.0 60.0 -218.0 158.0 699.0 
-195.0 89.0 285.0 60.0 -218.0 158.0 699.0 89.0 
-195.0 89.0 285.0 60.0 -218.0 158.0 699.0 89.0 -468.0 
-195.0 89.0 285.0 60.0 -218.0 158.0 699.0 89.0 -468.0 -238.0 
-195.0 89.0 285.0 60.0 -218.0 158.0 699.0 89.0 -468.0 -238.0 -368.0 
-195.0 89.0 285.0 60.0 -218.0 158.0 699.0 89.0 -468.0 -238.0 -368.0 -491.0 
-195.0 
-195.0 99.0 
-195.0 99.0 294.0 
-195.0 99.0 294.0 52.0 
-195.0 99.0 294.0 52.0 -240.0 
-195.0 99.0 294.0 52.0 -240.0 187.0 
-195.0 99.0 294.0 52.0 -240.0 187.0 646.0 
-195.0 99.0 294.0 52.0 -240.0 187.0 646.0 118.0 
-195.0 99.0 294.0 52.0 -240.0 187.0 646.0 118.0 -429.0 
-195.0 99.0 294.0 52.0 -240.0 187.0 646.0 118.0 -429.0 -213.0 
-195.0 99.0 294.0 52.0 -240.0 187.0 646.0 118.0 -429.0 -213.0 -344.0 
-195.0 99.0 294.0 52.0 -240.0 187.0 646.0 118.0 -429.0 -213.0 -344.0 -472.0 
-170.0 
-170.0 85.0 
-170.0 85.0 255.0 
-170.0 85.0 255.0 47.0 
-170.0 85.0 255.0 47.0 -245.0 
-170.0 85.0 255.0 47.0 -245.0 197.0 
-170.0 85.0 255.0 47.0 -245.0 197.0 611.0 
-170.0 85.0 255.0 47.0 -245.0 197.0 611.0 153.0 
-170.0 85.0 255.0 47.0 -245.0 197.0 611.0 153.0 -385.0 
-170.0 85.0 255.0 47.0 -245.0 197.0 611.0 153.0 -385.0 -166.0 
-170.0 85.0 255.0 47.0 -245.0 197.0 611.0 153.0 -385.0 -166.0 -300.0 
-170.0 85.0 255.0 47.0 -245.0 197.0 611.0 153.0 -385.0 -166.0 -300.0 -438.0 
-150.0 
-150.0 105.0 
-150.0 105.0 255.0 
-150.0 105.0 255.0 42.0 
-150.0 105.0 255.0 42.0 -213.0 
-150.0 105.0 255.0 42.0 -213.0 170.0 
-150.0 105.0 255.0 42.0 -213.0 170.0 553.0 
-150.0 105.0 255.0 42.0 -213.0 170.0 553.0 182.0 
-150.0 105.0 255.0 42.0 -213.0 170.0 553.0 182.0 -351.0 
-150.0 105.0 255.0 42.0 -213.0 170.0 553.0 182.0 -351.0 -117.0 
-150.0 105.0 255.0 42.0 -213.0 170.0 553.0 182.0 -351.0 -117.0 -256.0 
-150.0 105.0 255.0 42.0 -213.0 170.0 553.0 182.0 -351.0 -117.0 -256.0 -403.0 
-121.0 
-121.0 129.0 
-121.0 129.0 250.0 
-121.0 129.0 250.0 22.0 
-121.0 129.0 250.0 22.0 -203.0 
-121.0 129.0 250.0 22.0 -203.0 180.0 
-121.0 129.0 250.0 22.0 -203.0 180.0 445.0 
-121.0 129.0 250.0 22.0 -203.0 180.0 445.0 211.0 
-121.0 129.0 250.0 22.0 -203.0 180.0 445.0 211.0 -312.0 
-121.0 129.0 250.0 22.0 -203.0 180.0 445.0 211.0 -312.0 -83.0 
-121.0 129.0 250.0 22.0 -203.0 180.0 445.0 211.0 -312.0 -83.0 -232.0 
-121.0 129.0 250.0 22.0 -203.0 180.0 445.0 211.0 -312.0 -83.0 -232.0 -389.0 
-72.0 
-72.0 149.0 
-72.0 149.0 221.0 
-72.0 149.0 221.0 -3.0 
-72.0 149.0 221.0 -3.0 -185.0 
-72.0 149.0 221.0 -3.0 -185.0 191.0 
-72.0 149.0 221.0 -3.0 -185.0 191.0 348.0 
-72.0 149.0 221.0 -3.0 -185.0 191.0 348.0 226.0 
-72.0 149.0 221.0 -3.0 -185.0 191.0 348.0 226.0 -285.0 
-72.0 149.0 221.0 -3.0 -185.0 191.0 348.0 226.0 -285.0 -39.0 
-72.0 149.0 221.0 -3.0 -185.0 191.0 348.0 226.0 -285.0 -39.0 -192.0 
-72.0 149.0 221.0 -3.0 -185.0 191.0 348.0 226.0 -285.0 -39.0 -192.0 -349.0 
-38.0 
-38.0 164.0 
-38.0 164.0 202.0 
-38.0 164.0 202.0 -37.0 
-38.0 164.0 202.0 -37.0 -146.0 
-38.0 164.0 202.0 -37.0 -146.0 186.0 
-38.0 164.0 202.0 -37.0 -146.0 186.0 289.0 
-38.0 164.0 202.0 -37.0 -146.0 186.0 289.0 249.0 
-38.0 164.0 202.0 -37.0 -146.0 186.0 289.0 249.0 -256.0 
-38.0 164.0 202.0 -37.0 -146.0 186.0 289.0 249.0 -256.0 -14.0 
-38.0 164.0 202.0 -37.0 -146.0 186.0 289.0 249.0 -256.0 -14.0 -172.0 
-38.0 164.0 202.0 -37.0 -146.0 186.0 289.0 249.0 -256.0 -14.0 -172.0 -339.0 
-8.0 
-8.0 178.0 
-8.0 178.0 187.0 
-8.0 178.0 187.0 -61.0 
-8.0 178.0 187.0 -61.0 -119.0 
-8.0 178.0 187.0 -61.0 -119.0 183.0 
-8.0 178.0 187.0 -61.0 -119.0 183.0 236.0 
-8.0 178.0 187.0 -61.0 -119.0 183.0 236.0 293.0 
-8.0 178.0 187.0 -61.0 -119.0 183.0 236.0 293.0 -207.0 
-8.0 178.0 187.0 -61.0 -119.0 183.0 236.0 293.0 -207.0 9.0 
-8.0 178.0 187.0 -61.0 -119.0 183.0 236.0 293.0 -207.0 9.0 -153.0 
-8.0 178.0 187.0 -61.0 -119.0 183.0 236.0 293.0 -207.0 9.0 -153.0 -319.0 
1.0 
1.0 193.0 
1.0 193.0 191.0 
1.0 193.0 191.0 -83.0 
1.0 193.0 191.0 -83.0 -97.0 
1.0 193.0 191.0 -83.0 -97.0 183.0 
1.0 193.0 191.0 -83.0 -97.0 183.0 187.0 
1.0 193.0 191.0 -83.0 -97.0 183.0 187.0 317.0 
1.0 193.0 191.0 -83.0 -97.0 183.0 187.0 317.0 -183.0 
1.0 193.0 191.0 -83.0 -97.0 183.0 187.0 317.0 -183.0 58.0 
1.0 193.0 191.0 -83.0 -97.0 183.0 187.0 317.0 -183.0 58.0 -109.0 
1.0 193.0 191.0 -83.0 -97.0 183.0 187.0 317.0 -183.0 58.0 -109.0 -280.0 
1.0 
1.0 178.0 
1.0 178.0 176.0 
1.0 178.0 176.0 -95.0 
1.0 178.0 176.0 -95.0 -93.0 
1.0 178.0 176.0 -95.0 -93.0 193.0 
1.0 178.0 176.0 -95.0 -93.0 193.0 161.0 
1.0 178.0 176.0 -95.0 -93.0 193.0 161.0 347.0 
1.0 178.0 176.0 -95.0 -93.0 193.0 161.0 347.0 -154.0 
1.0 178.0 176.0 -95.0 -93.0 193.0 161.0 347.0 -154.0 82.0 
1.0 178.0 176.0 -95.0 -93.0 193.0 161.0 347.0 -154.0 82.0 -84.0 
1.0 178.0 176.0 -95.0 -93.0 193.0 161.0 347.0 -154.0 82.0 -84.0 -261.0 
20.0 
20.0 188.0 
20.0 188.0 167.0 
20.0 188.0 167.0 -88.0 
20.0 188.0 167.0 -88.0 -86.0 
20.0 188.0 167.0 -88.0 -86.0 178.0 
20.0 188.0 167.0 -88.0 -86.0 178.0 186.0 
20.0 188.0 167.0 -88.0 -86.0 178.0 186.0 409.0 
20.0 188.0 167.0 -88.0 -86.0 178.0 186.0 409.0 -100.0 
20.0 188.0 167.0 -88.0 -86.0 178.0 186.0 409.0 -100.0 107.0 
20.0 188.0 167.0 -88.0 -86.0 178.0 186.0 409.0 -100.0 107.0 -65.0 
20.0 188.0 167.0 -88.0 -86.0 178.0 186.0 409.0 -100.0 107.0 -65.0 -246.0 
30.0 
30.0 217.0 
30.0 217.0 187.0 
30.0 217.0 187.0 -103.0 
30.0 217.0 187.0 -103.0 -71.0 
30.0 217.0 187.0 -103.0 -71.0 178.0 
30.0 217.0 187.0 -103.0 -71.0 178.0 225.0 
30.0 217.0 187.0 -103.0 -71.0 178.0 225.0 462.0 
30.0 217.0 187.0 -103.0 -71.0 178.0 225.0 462.0 -61.0 
30.0 217.0 187.0 -103.0 -71.0 178.0 225.0 462.0 -61.0 150.0 
30.0 217.0 187.0 -103.0 -71.0 178.0 225.0 462.0 -61.0 150.0 -31.0 
30.0 217.0 187.0 -103.0 -71.0 178.0 225.0 462.0 -61.0 150.0 -31.0 -217.0 
40.0 
40.0 242.0 
40.0 242.0 201.0 
40.0 242.0 201.0 -122.0 
40.0 242.0 201.0 -122.0 -76.0 
40.0 242.0 201.0 -122.0 -76.0 203.0 
40.0 242.0 201.0 -122.0 -76.0 203.0 264.0 
40.0 242.0 201.0 -122.0 -76.0 203.0 264.0 516.0 
40.0 242.0 201.0 -122.0 -76.0 203.0 264.0 516.0 -22.0 
40.0 242.0 201.0 -122.0 -76.0 203.0 264.0 516.0 -22.0 179.0 
40.0 242.0 201.0 -122.0 -76.0 203.0 264.0 516.0 -22.0 179.0 -6.0 
40.0 242.0 201.0 -122.0 -76.0 203.0 264.0 516.0 -22.0 179.0 -6.0 -205.0 
83.0 
83.0 281.0 
83.0 281.0 196.0 
83.0 281.0 196.0 -139.0 
83.0 281.0 196.0 -139.0 -79.0 
83.0 281.0 196.0 -139.0 -79.0 222.0 
83.0 281.0 196.0 -139.0 -79.0 222.0 313.0 
83.0 281.0 196.0 -139.0 -79.0 222.0 313.0 579.0 
83.0 281.0 196.0 -139.0 -79.0 222.0 313.0 579.0 21.0 
83.0 281.0 196.0 -139.0 -79.0 222.0 313.0 579.0 21.0 213.0 
83.0 281.0 196.0 -139.0 -79.0 222.0 313.0 579.0 21.0 213.0 12.0 
83.0 281.0 196.0 -139.0 -79.0 222.0 313.0 579.0 21.0 213.0 12.0 -186.0 
98.0 
98.0 315.0 
98.0 315.0 216.0 
98.0 315.0 216.0 -181.0 
98.0 315.0 216.0 -181.0 -54.0 
98.0 315.0 216.0 -181.0 -54.0 240.0 
98.0 315.0 216.0 -181.0 -54.0 240.0 366.0 
98.0 315.0 216.0 -181.0 -54.0 240.0 366.0 638.0 
98.0 315.0 216.0 -181.0 -54.0 240.0 366.0 638.0 70.0 
98.0 315.0 216.0 -181.0 -54.0 240.0 366.0 638.0 70.0 252.0 
98.0 315.0 216.0 -181.0 -54.0 240.0 366.0 638.0 70.0 252.0 37.0 
98.0 315.0 216.0 -181.0 -54.0 240.0 366.0 638.0 70.0 252.0 37.0 -171.0 
108.0 
108.0 325.0 
108.0 325.0 216.0 
108.0 325.0 216.0 -205.0 
108.0 325.0 216.0 -205.0 -57.0 
108.0 325.0 216.0 -205.0 -57.0 267.0 
108.0 325.0 216.0 -205.0 -57.0 267.0 415.0 
108.0 325.0 216.0 -205.0 -57.0 267.0 415.0 696.0 
108.0 325.0 216.0 -205.0 -57.0 267.0 415.0 696.0 119.0 
108.0 325.0 216.0 -205.0 -57.0 267.0 415.0 696.0 119.0 286.0 
108.0 325.0 216.0 -205.0 -57.0 267.0 415.0 696.0 119.0 286.0 61.0 
108.0 325.0 216.0 -205.0 -57.0 267.0 415.0 696.0 119.0 286.0 61.0 -156.0 
103.0 
103.0 320.0 
103.0 320.0 216.0 
103.0 320.0 216.0 -215.0 
103.0 320.0 216.0 -215.0 -52.0 
103.0 320.0 216.0 -215.0 -52.0 272.0 
103.0 320.0 216.0 -215.0 -52.0 272.0 440.0 
103.0 320.0 216.0 -215.0 -52.0 272.0 440.0 735.0 
103.0 320.0 216.0 -215.0 -52.0 272.0 440.0 735.0 153.0 
103.0 320.0 216.0 -215.0 -52.0 272.0 440.0 735.0 153.0 335.0 
103.0 320.0 216.0 -215.0 -52.0 272.0 440.0 735.0 153.0 335.0 105.0 
103.0 320.0 216.0 -215.0 -52.0 272.0 440.0 735.0 153.0 335.0 105.0 -113.0 
93.0 
93.0 310.0 
93.0 310.0 216.0 
93.0 310.0 216.0 -210.0 
93.0 310.0 216.0 -210.0 -54.0 
93.0 310.0 216.0 -210.0 -54.0 270.0 
93.0 310.0 216.0 -210.0 -54.0 270.0 449.0 
93.0 310.0 216.0 -210.0 -54.0 270.0 449.0 749.0 
93.0 310.0 216.0 -210.0 -54.0 270.0 449.0 749.0 167.0 
93.0 310.0 216.0 -210.0 -54.0 270.0 449.0 749.0 167.0 360.0 
93.0 310.0 216.0 -210.0 -54.0 270.0 449.0 749.0 167.0 360.0 120.0 
93.0 310.0 216.0 -210.0 -54.0 270.0 449.0 749.0 167.0 360.0 120.0 -108.0 
103.0 
103.0 310.0 
103.0 310.0 206.0 
103.0 310.0 206.0 -200.0 
103.0 310.0 206.0 -200.0 -59.0 
103.0 310.0 206.0 -200.0 -59.0 265.0 
103.0 310.0 206.0 -200.0 -59.0 265.0 464.0 
103.0 310.0 206.0 -200.0 -59.0 265.0 464.0 763.0 
103.0 310.0 206.0 -200.0 -59.0 265.0 464.0 763.0 177.0 
103.0 310.0 206.0 -200.0 -59.0 265.0 464.0 763.0 177.0 368.0 
103.0 310.0 206.0 -200.0 -59.0 265.0 464.0 763.0 177.0 368.0 125.0 
103.0 310.0 206.0 -200.0 -59.0 265.0 464.0 763.0 177.0 368.0 125.0 -108.0 
88.0 
88.0 300.0 
88.0 300.0 211.0 
88.0 300.0 211.0 -205.0 
88.0 300.0 211.0 -205.0 -49.0 
88.0 300.0 211.0 -205.0 -49.0 260.0 
88.0 300.0 211.0 -205.0 -49.0 260.0 464.0 
88.0 300.0 211.0 -205.0 -49.0 260.0 464.0 768.0 
88.0 300.0 211.0 -205.0 -49.0 260.0 464.0 768.0 182.0 
88.0 300.0 211.0 -205.0 -49.0 260.0 464.0 768.0 182.0 383.0 
88.0 300.0 211.0 -205.0 -49.0 260.0 464.0 768.0 182.0 383.0 134.0 
88.0 300.0 211.0 -205.0 -49.0 260.0 464.0 768.0 182.0 383.0 134.0 -92.0 
88.0 
88.0 305.0 
88.0 305.0 216.0 
88.0 305.0 216.0 -193.0 
88.0 305.0 216.0 -193.0 -59.0 
88.0 305.0 216.0 -193.0 -59.0 257.0 
88.0 305.0 216.0 -193.0 -59.0 257.0 464.0 
88.0 305.0 216.0 -193.0 -59.0 257.0 464.0 773.0 
88.0 305.0 216.0 -193.0 -59.0 257.0 464.0 773.0 182.0 
88.0 305.0 216.0 -193.0 -59.0 257.0 464.0 773.0 182.0 388.0 
88.0 305.0 216.0 -193.0 -59.0 257.0 464.0 773.0 182.0 388.0 139.0 
88.0 305.0 216.0 -193.0 -59.0 257.0 464.0 773.0 182.0 388.0 139.0 -92.0 
103.0 
103.0 315.0 
103.0 315.0 211.0 
103.0 315.0 211.0 -195.0 
103.0 315.0 211.0 -195.0 -62.0 
103.0 315.0 211.0 -195.0 -62.0 262.0 
103.0 315.0 211.0 -195.0 -62.0 262.0 469.0 
103.0 315.0 211.0 -195.0 -62.0 262.0 469.0 782.0 
103.0 315.0 211.0 -195.0 -62.0 262.0 469.0 782.0 192.0 
103.0 315.0 211.0 -195.0 -62.0 262.0 469.0 782.0 192.0 387.0 
103.0 315.0 211.0 -195.0 -62.0 262.0 469.0 782.0 192.0 387.0 134.0 
103.0 315.0 211.0 -195.0 -62.0 262.0 469.0 782.0 192.0 387.0 134.0 -97.0 
113.0 
113.0 316.0 
113.0 316.0 201.0 
113.0 316.0 201.0 -208.0 
113.0 316.0 201.0 -208.0 -52.0 
113.0 316.0 201.0 -208.0 -52.0 266.0 
113.0 316.0 201.0 -208.0 -52.0 266.0 459.0 
113.0 316.0 201.0 -208.0 -52.0 266.0 459.0 781.0 
113.0 316.0 201.0 -208.0 -52.0 266.0 459.0 781.0 182.0 
113.0 316.0 201.0 -208.0 -52.0 266.0 459.0 781.0 182.0 397.0 
113.0 316.0 201.0 -208.0 -52.0 266.0 459.0 781.0 182.0 397.0 144.0 
113.0 316.0 201.0 -208.0 -52.0 266.0 459.0 781.0 182.0 397.0 144.0 -87.0 
123.0 
123.0 321.0 
123.0 321.0 196.0 
123.0 321.0 196.0 -213.0 
123.0 321.0 196.0 -213.0 -42.0 
123.0 321.0 196.0 -213.0 -42.0 261.0 
123.0 321.0 196.0 -213.0 -42.0 261.0 459.0 
123.0 321.0 196.0 -213.0 -42.0 261.0 459.0 781.0 
123.0 321.0 196.0 -213.0 -42.0 261.0 459.0 781.0 187.0 
123.0 321.0 196.0 -213.0 -42.0 261.0 459.0 781.0 187.0 392.0 
123.0 321.0 196.0 -213.0 -42.0 261.0 459.0 781.0 187.0 392.0 134.0 
123.0 321.0 196.0 -213.0 -42.0 261.0 459.0 781.0 187.0 392.0 134.0 -102.0 
123.0 
123.0 330.0 
123.0 330.0 206.0 
123.0 330.0 206.0 -220.0 
123.0 330.0 206.0 -220.0 -35.0 
123.0 330.0 206.0 -220.0 -35.0 261.0 
123.0 330.0 206.0 -220.0 -35.0 261.0 464.0 
123.0 330.0 206.0 -220.0 -35.0 261.0 464.0 791.0 
123.0 330.0 206.0 -220.0 -35.0 261.0 464.0 791.0 202.0 
123.0 330.0 206.0 -220.0 -35.0 261.0 464.0 791.0 202.0 392.0 
123.0 330.0 206.0 -220.0 -35.0 261.0 464.0 791.0 202.0 392.0 134.0 
123.0 330.0 206.0 -220.0 -35.0 261.0 464.0 791.0 202.0 392.0 134.0 -97.0 
113.0 
113.0 326.0 
113.0 326.0 211.0 
113.0 326.0 211.0 -225.0 
113.0 326.0 211.0 -225.0 -40.0 
113.0 326.0 211.0 -225.0 -40.0 271.0 
113.0 326.0 211.0 -225.0 -40.0 271.0 458.0 
113.0 326.0 211.0 -225.0 -40.0 271.0 458.0 791.0 
113.0 326.0 211.0 -225.0 -40.0 271.0 458.0 791.0 197.0 
113.0 326.0 211.0 -225.0 -40.0 271.0 458.0 791.0 197.0 406.0 
113.0 326.0 211.0 -225.0 -40.0 271.0 458.0 791.0 197.0 406.0 155.0 
113.0 326.0 211.0 -225.0 -40.0 271.0 458.0 791.0 197.0 406.0 155.0 -80.0 
98.0 
98.0 316.0 
98.0 316.0 216.0 
98.0 316.0 216.0 -217.0 
98.0 316.0 216.0 -217.0 -47.0 
98.0 316.0 216.0 -217.0 -47.0 271.0 
98.0 316.0 216.0 -217.0 -47.0 271.0 458.0 
98.0 316.0 216.0 -217.0 -47.0 271.0 458.0 796.0 
98.0 316.0 216.0 -217.0 -47.0 271.0 458.0 796.0 202.0 
98.0 316.0 216.0 -217.0 -47.0 271.0 458.0 796.0 202.0 401.0 
98.0 316.0 216.0 -217.0 -47.0 271.0 458.0 796.0 202.0 401.0 150.0 
98.0 316.0 216.0 -217.0 -47.0 271.0 458.0 796.0 202.0 401.0 150.0 -85.0 
118.0 
118.0 306.0 
118.0 306.0 187.0 
118.0 306.0 187.0 -205.0 
118.0 306.0 187.0 -205.0 -57.0 
118.0 306.0 187.0 -205.0 -57.0 268.0 
118.0 306.0 187.0 -205.0 -57.0 268.0 458.0 
118.0 306.0 187.0 -205.0 -57.0 268.0 458.0 800.0 
118.0 306.0 187.0 -205.0 -57.0 268.0 458.0 800.0 206.0 
118.0 306.0 187.0 -205.0 -57.0 268.0 458.0 800.0 206.0 406.0 
118.0 306.0 187.0 -205.0 -57.0 268.0 458.0 800.0 206.0 406.0 155.0 
118.0 306.0 187.0 -205.0 -57.0 268.0 458.0 800.0 206.0 406.0 155.0 -75.0 
98.0 
98.0 296.0 
98.0 296.0 196.0 
98.0 296.0 196.0 -211.0 
98.0 296.0 196.0 -211.0 -32.0 
98.0 296.0 196.0 -211.0 -32.0 249.0 
98.0 296.0 196.0 -211.0 -32.0 249.0 458.0 
98.0 296.0 196.0 -211.0 -32.0 249.0 458.0 799.0 
98.0 296.0 196.0 -211.0 -32.0 249.0 458.0 799.0 202.0 
98.0 296.0 196.0 -211.0 -32.0 249.0 458.0 799.0 202.0 421.0 
98.0 296.0 196.0 -211.0 -32.0 249.0 458.0 799.0 202.0 421.0 165.0 
98.0 296.0 196.0 -211.0 -32.0 249.0 458.0 799.0 202.0 421.0 165.0 -70.0 
103.0 
103.0 316.0 
103.0 316.0 211.0 
103.0 316.0 211.0 -196.0 
103.0 316.0 211.0 -196.0 -47.0 
103.0 316.0 211.0 -196.0 -47.0 249.0 
103.0 316.0 211.0 -196.0 -47.0 249.0 463.0 
103.0 316.0 211.0 -196.0 -47.0 249.0 463.0 804.0 
103.0 316.0 211.0 -196.0 -47.0 249.0 463.0 804.0 206.0 
103.0 316.0 211.0 -196.0 -47.0 249.0 463.0 804.0 206.0 411.0 
103.0 316.0 211.0 -196.0 -47.0 249.0 463.0 804.0 206.0 411.0 155.0 
103.0 316.0 211.0 -196.0 -47.0 249.0 463.0 804.0 206.0 411.0 155.0 -80.0 
127.0 
127.0 321.0 
127.0 321.0 192.0 
127.0 321.0 192.0 -209.0 
127.0 321.0 192.0 -209.0 -52.0 
127.0 321.0 192.0 -209.0 -52.0 266.0 
127.0 321.0 192.0 -209.0 -52.0 266.0 463.0 
127.0 321.0 192.0 -209.0 -52.0 266.0 463.0 809.0 
127.0 321.0 192.0 -209.0 -52.0 266.0 463.0 809.0 211.0 
127.0 321.0 192.0 -209.0 -52.0 266.0 463.0 809.0 211.0 416.0 
127.0 321.0 192.0 -209.0 -52.0 266.0 463.0 809.0 211.0 416.0 155.0 
127.0 321.0 192.0 -209.0 -52.0 266.0 463.0 809.0 211.0 416.0 155.0 -80.0 
123.0 
123.0 335.0 
123.0 335.0 211.0 
123.0 335.0 211.0 -223.0 
123.0 335.0 211.0 -223.0 -30.0 
123.0 335.0 211.0 -223.0 -30.0 258.0 
123.0 335.0 211.0 -223.0 -30.0 258.0 457.0 
123.0 335.0 211.0 -223.0 -30.0 258.0 457.0 804.0 
123.0 335.0 211.0 -223.0 -30.0 258.0 457.0 804.0 202.0 
123.0 335.0 211.0 -223.0 -30.0 258.0 457.0 804.0 202.0 420.0 
123.0 335.0 211.0 -223.0 -30.0 258.0 457.0 804.0 202.0 420.0 160.0 
123.0 335.0 211.0 -223.0 -30.0 258.0 457.0 804.0 202.0 420.0 160.0 -75.0 
118.0 
118.0 345.0 
118.0 345.0 226.0 
118.0 345.0 226.0 -228.0 
118.0 345.0 226.0 -228.0 -42.0 
118.0 345.0 226.0 -228.0 -42.0 276.0 
118.0 345.0 226.0 -228.0 -42.0 276.0 457.0 
118.0 345.0 226.0 -228.0 -42.0 276.0 457.0 808.0 
118.0 345.0 226.0 -228.0 -42.0 276.0 457.0 808.0 211.0 
118.0 345.0 226.0 -228.0 -42.0 276.0 457.0 808.0 211.0 410.0 
118.0 345.0 226.0 -228.0 -42.0 276.0 457.0 808.0 211.0 410.0 150.0 
118.0 345.0 226.0 -228.0 -42.0 276.0 457.0 808.0 211.0 410.0 150.0 -89.0 
132.0 
132.0 335.0 
132.0 335.0 201.0 
132.0 335.0 201.0 -231.0 
132.0 335.0 201.0 -231.0 -52.0 
132.0 335.0 201.0 -231.0 -52.0 288.0 
132.0 335.0 201.0 -231.0 -52.0 288.0 457.0 
132.0 335.0 201.0 -231.0 -52.0 288.0 457.0 803.0 
132.0 335.0 201.0 -231.0 -52.0 288.0 457.0 803.0 211.0 
132.0 335.0 201.0 -231.0 -52.0 288.0 457.0 803.0 211.0 420.0 
132.0 335.0 201.0 -231.0 -52.0 288.0 457.0 803.0 211.0 420.0 160.0 
132.0 335.0 201.0 -231.0 -52.0 288.0 457.0 803.0 211.0 420.0 160.0 -79.0 
123.0 
123.0 321.0 
123.0 321.0 197.0 
123.0 321.0 197.0 -233.0 
123.0 321.0 197.0 -233.0 -32.0 
123.0 321.0 197.0 -233.0 -32.0 271.0 
123.0 321.0 197.0 -233.0 -32.0 271.0 452.0 
123.0 321.0 197.0 -233.0 -32.0 271.0 452.0 793.0 
123.0 321.0 197.0 -233.0 -32.0 271.0 452.0 793.0 206.0 
123.0 321.0 197.0 -233.0 -32.0 271.0 452.0 793.0 206.0 420.0 
123.0 321.0 197.0 -233.0 -32.0 271.0 452.0 793.0 206.0 420.0 160.0 
123.0 321.0 197.0 -233.0 -32.0 271.0 452.0 793.0 206.0 420.0 160.0 -79.0 
98.0 
98.0 316.0 
98.0 316.0 217.0 
98.0 316.0 217.0 -221.0 
98.0 316.0 217.0 -221.0 -35.0 
98.0 316.0 217.0 -221.0 -35.0 261.0 
98.0 316.0 217.0 -221.0 -35.0 261.0 462.0 
98.0 316.0 217.0 -221.0 -35.0 261.0 462.0 807.0 
98.0 316.0 217.0 -221.0 -35.0 261.0 462.0 807.0 216.0 
98.0 316.0 217.0 -221.0 -35.0 261.0 462.0 807.0 216.0 415.0 
98.0 316.0 217.0 -221.0 -35.0 261.0 462.0 807.0 216.0 415.0 155.0 
98.0 316.0 217.0 -221.0 -35.0 261.0 462.0 807.0 216.0 415.0 155.0 -84.0 
108.0 
108.0 322.0 
108.0 322.0 212.0 
108.0 322.0 212.0 -206.0 
108.0 322.0 212.0 -206.0 -57.0 
108.0 322.0 212.0 -206.0 -57.0 269.0 
108.0 322.0 212.0 -206.0 -57.0 269.0 457.0 
108.0 322.0 212.0 -206.0 -57.0 269.0 457.0 807.0 
108.0 322.0 212.0 -206.0 -57.0 269.0 457.0 807.0 211.0 
108.0 322.0 212.0 -206.0 -57.0 269.0 457.0 807.0 211.0 430.0 
108.0 322.0 212.0 -206.0 -57.0 269.0 457.0 807.0 211.0 430.0 169.0 
108.0 322.0 212.0 -206.0 -57.0 269.0 457.0 807.0 211.0 430.0 169.0 -69.0 
123.0 
123.0 322.0 
123.0 322.0 197.0 
123.0 322.0 197.0 -214.0 
123.0 322.0 197.0 -214.0 -49.0 
123.0 322.0 197.0 -214.0 -49.0 269.0 
123.0 322.0 197.0 -214.0 -49.0 269.0 457.0 
123.0 322.0 197.0 -214.0 -49.0 269.0 457.0 807.0 
123.0 322.0 197.0 -214.0 -49.0 269.0 457.0 807.0 211.0 
123.0 322.0 197.0 -214.0 -49.0 269.0 457.0 807.0 211.0 429.0 
123.0 322.0 197.0 -214.0 -49.0 269.0 457.0 807.0 211.0 429.0 165.0 
123.0 322.0 197.0 -214.0 -49.0 269.0 457.0 807.0 211.0 429.0 165.0 -74.0 
123.0 
123.0 327.0 
123.0 327.0 202.0 
123.0 327.0 202.0 -221.0 
123.0 327.0 202.0 -221.0 -35.0 
123.0 327.0 202.0 -221.0 -35.0 262.0 
123.0 327.0 202.0 -221.0 -35.0 262.0 457.0 
123.0 327.0 202.0 -221.0 -35.0 262.0 457.0 807.0 
123.0 327.0 202.0 -221.0 -35.0 262.0 457.0 807.0 211.0 
123.0 327.0 202.0 -221.0 -35.0 262.0 457.0 807.0 211.0 424.0 
123.0 327.0 202.0 -221.0 -35.0 262.0 457.0 807.0 211.0 424.0 160.0 
123.0 327.0 202.0 -221.0 -35.0 262.0 457.0 807.0 211.0 424.0 160.0 -74.0 
127.0 
127.0 336.0 
127.0 336.0 207.0 
127.0 336.0 207.0 -223.0 
127.0 336.0 207.0 -223.0 -37.0 
127.0 336.0 207.0 -223.0 -37.0 267.0 
127.0 336.0 207.0 -223.0 -37.0 267.0 457.0 
127.0 336.0 207.0 -223.0 -37.0 267.0 457.0 806.0 
127.0 336.0 207.0 -223.0 -37.0 267.0 457.0 806.0 206.0 
127.0 336.0 207.0 -223.0 -37.0 267.0 457.0 806.0 206.0 424.0 
127.0 336.0 207.0 -223.0 -37.0 267.0 457.0 806.0 206.0 424.0 161.0 
127.0 336.0 207.0 -223.0 -37.0 267.0 457.0 806.0 206.0 424.0 161.0 -72.0 
127.0 
127.0 336.0 
127.0 336.0 207.0 
127.0 336.0 207.0 -231.0 
127.0 336.0 207.0 -231.0 -37.0 
127.0 336.0 207.0 -231.0 -37.0 274.0 
127.0 336.0 207.0 -231.0 -37.0 274.0 452.0 
127.0 336.0 207.0 -231.0 -37.0 274.0 452.0 806.0 
127.0 336.0 207.0 -231.0 -37.0 274.0 452.0 806.0 211.0 
127.0 336.0 207.0 -231.0 -37.0 274.0 452.0 806.0 211.0 418.0 
127.0 336.0 207.0 -231.0 -37.0 274.0 452.0 806.0 211.0 418.0 156.0 
127.0 336.0 207.0 -231.0 -37.0 274.0 452.0 806.0 211.0 418.0 156.0 -82.0 
127.0 
127.0 346.0 
127.0 346.0 217.0 
127.0 346.0 217.0 -231.0 
127.0 346.0 217.0 -231.0 -37.0 
127.0 346.0 217.0 -231.0 -37.0 274.0 
127.0 346.0 217.0 -231.0 -37.0 274.0 451.0 
127.0 346.0 217.0 -231.0 -37.0 274.0 451.0 806.0 
127.0 346.0 217.0 -231.0 -37.0 274.0 451.0 806.0 216.0 
127.0 346.0 217.0 -231.0 -37.0 274.0 451.0 806.0 216.0 418.0 
127.0 346.0 217.0 -231.0 -37.0 274.0 451.0 806.0 216.0 418.0 156.0 
127.0 346.0 217.0 -231.0 -37.0 274.0 451.0 806.0 216.0 418.0 156.0 -82.0 
118.0 
118.0 336.0 
118.0 336.0 218.0 
118.0 336.0 218.0 -236.0 
118.0 336.0 218.0 -236.0 -42.0 
118.0 336.0 218.0 -236.0 -42.0 284.0 
118.0 336.0 218.0 -236.0 -42.0 284.0 446.0 
118.0 336.0 218.0 -236.0 -42.0 284.0 446.0 801.0 
118.0 336.0 218.0 -236.0 -42.0 284.0 446.0 801.0 211.0 
118.0 336.0 218.0 -236.0 -42.0 284.0 446.0 801.0 211.0 428.0 
118.0 336.0 218.0 -236.0 -42.0 284.0 446.0 801.0 211.0 428.0 166.0 
118.0 336.0 218.0 -236.0 -42.0 284.0 446.0 801.0 211.0 428.0 166.0 -67.0 
123.0 
123.0 323.0 
123.0 323.0 198.0 
123.0 323.0 198.0 -226.0 
123.0 323.0 198.0 -226.0 -47.0 
123.0 323.0 198.0 -226.0 -47.0 279.0 
123.0 323.0 198.0 -226.0 -47.0 279.0 446.0 
123.0 323.0 198.0 -226.0 -47.0 279.0 446.0 800.0 
123.0 323.0 198.0 -226.0 -47.0 279.0 446.0 800.0 211.0 
123.0 323.0 198.0 -226.0 -47.0 279.0 446.0 800.0 211.0 423.0 
123.0 323.0 198.0 -226.0 -47.0 279.0 446.0 800.0 211.0 423.0 166.0 
123.0 323.0 198.0 -226.0 -47.0 279.0 446.0 800.0 211.0 423.0 166.0 -72.0 
118.0 
118.0 323.0 
118.0 323.0 203.0 
118.0 323.0 203.0 -221.0 
118.0 323.0 203.0 -221.0 -35.0 
118.0 323.0 203.0 -221.0 -35.0 262.0 
118.0 323.0 203.0 -221.0 -35.0 262.0 446.0 
118.0 323.0 203.0 -221.0 -35.0 262.0 446.0 800.0 
118.0 323.0 203.0 -221.0 -35.0 262.0 446.0 800.0 211.0 
118.0 323.0 203.0 -221.0 -35.0 262.0 446.0 800.0 211.0 423.0 
118.0 323.0 203.0 -221.0 -35.0 262.0 446.0 800.0 211.0 423.0 170.0 
118.0 323.0 203.0 -221.0 -35.0 262.0 446.0 800.0 211.0 423.0 170.0 -72.0 
118.0 
118.0 323.0 
118.0 323.0 203.0 
118.0 323.0 203.0 -218.0 
118.0 323.0 203.0 -218.0 -40.0 
118.0 323.0 203.0 -218.0 -40.0 264.0 
118.0 323.0 203.0 -218.0 -40.0 264.0 446.0 
118.0 323.0 203.0 -218.0 -40.0 264.0 446.0 804.0 
118.0 323.0 203.0 -218.0 -40.0 264.0 446.0 804.0 211.0 
118.0 323.0 203.0 -218.0 -40.0 264.0 446.0 804.0 211.0 428.0 
118.0 323.0 203.0 -218.0 -40.0 264.0 446.0 804.0 211.0 428.0 166.0 
118.0 323.0 203.0 -218.0 -40.0 264.0 446.0 804.0 211.0 428.0 166.0 -67.0 
118.0 
118.0 342.0 
118.0 342.0 223.0 
118.0 342.0 223.0 -218.0 
118.0 342.0 223.0 -218.0 -40.0 
118.0 342.0 223.0 -218.0 -40.0 264.0 
118.0 342.0 223.0 -218.0 -40.0 264.0 451.0 
118.0 342.0 223.0 -218.0 -40.0 264.0 451.0 809.0 
118.0 342.0 223.0 -218.0 -40.0 264.0 451.0 809.0 216.0 
118.0 342.0 223.0 -218.0 -40.0 264.0 451.0 809.0 216.0 423.0 
118.0 342.0 223.0 -218.0 -40.0 264.0 451.0 809.0 216.0 423.0 167.0 
118.0 342.0 223.0 -218.0 -40.0 264.0 451.0 809.0 216.0 423.0 167.0 -71.0 
118.0 
118.0 357.0 
118.0 357.0 238.0 
118.0 357.0 238.0 -228.0 
118.0 357.0 238.0 -228.0 -49.0 
118.0 357.0 238.0 -228.0 -49.0 284.0 
118.0 357.0 238.0 -228.0 -49.0 284.0 446.0 
118.0 357.0 238.0 -228.0 -49.0 284.0 446.0 804.0 
118.0 357.0 238.0 -228.0 -49.0 284.0 446.0 804.0 206.0 
118.0 357.0 238.0 -228.0 -49.0 284.0 446.0 804.0 206.0 433.0 
118.0 357.0 238.0 -228.0 -49.0 284.0 446.0 804.0 206.0 433.0 171.0 
118.0 357.0 238.0 -228.0 -49.0 284.0 446.0 804.0 206.0 433.0 171.0 -66.0 
142.0 
142.0 352.0 
142.0 352.0 208.0 
142.0 352.0 208.0 -236.0 
142.0 352.0 208.0 -236.0 -57.0 
142.0 352.0 208.0 -236.0 -57.0 299.0 
142.0 352.0 208.0 -236.0 -57.0 299.0 437.0 
142.0 352.0 208.0 -236.0 -57.0 299.0 437.0 794.0 
142.0 352.0 208.0 -236.0 -57.0 299.0 437.0 794.0 202.0 
142.0 352.0 208.0 -236.0 -57.0 299.0 437.0 794.0 202.0 423.0 
142.0 352.0 208.0 -236.0 -57.0 299.0 437.0 794.0 202.0 423.0 167.0 
142.0 352.0 208.0 -236.0 -57.0 299.0 437.0 794.0 202.0 423.0 167.0 -71.0 
142.0 
142.0 342.0 
142.0 342.0 198.0 
142.0 342.0 198.0 -245.0 
142.0 342.0 198.0 -245.0 -30.0 
142.0 342.0 198.0 -245.0 -30.0 281.0 
142.0 342.0 198.0 -245.0 -30.0 281.0 441.0 
142.0 342.0 198.0 -245.0 -30.0 281.0 441.0 794.0 
142.0 342.0 198.0 -245.0 -30.0 281.0 441.0 794.0 202.0 
142.0 342.0 198.0 -245.0 -30.0 281.0 441.0 794.0 202.0 418.0 
142.0 342.0 198.0 -245.0 -30.0 281.0 441.0 794.0 202.0 418.0 157.0 
142.0 342.0 198.0 -245.0 -30.0 281.0 441.0 794.0 202.0 418.0 157.0 -76.0 
113.0 
113.0 328.0 
113.0 328.0 213.0 
113.0 328.0 213.0 -240.0 
113.0 328.0 213.0 -240.0 -25.0 
113.0 328.0 213.0 -240.0 -25.0 272.0 
113.0 328.0 213.0 -240.0 -25.0 272.0 441.0 
113.0 328.0 213.0 -240.0 -25.0 272.0 441.0 798.0 
113.0 328.0 213.0 -240.0 -25.0 272.0 441.0 798.0 211.0 
113.0 328.0 213.0 -240.0 -25.0 272.0 441.0 798.0 211.0 422.0 
113.0 328.0 213.0 -240.0 -25.0 272.0 441.0 798.0 211.0 422.0 162.0 
113.0 328.0 213.0 -240.0 -25.0 272.0 441.0 798.0 211.0 422.0 162.0 -76.0 
118.0 
118.0 318.0 
118.0 318.0 198.0 
118.0 318.0 198.0 -218.0 
118.0 318.0 198.0 -218.0 -49.0 
118.0 318.0 198.0 -218.0 -49.0 272.0 
118.0 318.0 198.0 -218.0 -49.0 272.0 441.0 
118.0 318.0 198.0 -218.0 -49.0 272.0 441.0 803.0 
118.0 318.0 198.0 -218.0 -49.0 272.0 441.0 803.0 216.0 
118.0 318.0 198.0 -218.0 -49.0 272.0 441.0 803.0 216.0 432.0 
118.0 318.0 198.0 -218.0 -49.0 272.0 441.0 803.0 216.0 432.0 176.0 
118.0 318.0 198.0 -218.0 -49.0 272.0 441.0 803.0 216.0 432.0 176.0 -62.0 
113.0 
113.0 318.0 
113.0 318.0 203.0 
113.0 318.0 203.0 -216.0 
113.0 318.0 203.0 -216.0 -39.0 
113.0 318.0 203.0 -216.0 -39.0 259.0 
113.0 318.0 203.0 -216.0 -39.0 259.0 446.0 
113.0 318.0 203.0 -216.0 -39.0 259.0 446.0 808.0 
113.0 318.0 203.0 -216.0 -39.0 259.0 446.0 808.0 217.0 
113.0 318.0 203.0 -216.0 -39.0 259.0 446.0 808.0 217.0 432.0 
113.0 318.0 203.0 -216.0 -39.0 259.0 446.0 808.0 217.0 432.0 176.0 
113.0 318.0 203.0 -216.0 -39.0 259.0 446.0 808.0 217.0 432.0 176.0 -57.0 
108.0 
108.0 342.0 
108.0 342.0 233.0 
108.0 342.0 233.0 -214.0 
108.0 342.0 233.0 -214.0 -44.0 
108.0 342.0 233.0 -214.0 -44.0 262.0 
108.0 342.0 233.0 -214.0 -44.0 262.0 446.0 
108.0 342.0 233.0 -214.0 -44.0 262.0 446.0 803.0 
108.0 342.0 233.0 -214.0 -44.0 262.0 446.0 803.0 212.0 
108.0 342.0 233.0 -214.0 -44.0 262.0 446.0 803.0 212.0 436.0 
108.0 342.0 233.0 -214.0 -44.0 262.0 446.0 803.0 212.0 436.0 186.0 
108.0 342.0 233.0 -214.0 -44.0 262.0 446.0 803.0 212.0 436.0 186.0 -50.0 
118.0 
118.0 352.0 
118.0 352.0 233.0 
118.0 352.0 233.0 -223.0 
118.0 352.0 233.0 -223.0 -61.0 
118.0 352.0 233.0 -223.0 -61.0 289.0 
118.0 352.0 233.0 -223.0 -61.0 289.0 446.0 
118.0 352.0 233.0 -223.0 -61.0 289.0 446.0 797.0 
118.0 352.0 233.0 -223.0 -61.0 289.0 446.0 797.0 207.0 
118.0 352.0 233.0 -223.0 -61.0 289.0 446.0 797.0 207.0 432.0 
118.0 352.0 233.0 -223.0 -61.0 289.0 446.0 797.0 207.0 432.0 176.0 
118.0 352.0 233.0 -223.0 -61.0 289.0 446.0 797.0 207.0 432.0 176.0 -64.0 
132.0 
132.0 352.0 
132.0 352.0 218.0 
132.0 352.0 218.0 -233.0 
132.0 352.0 218.0 -233.0 -56.0 
132.0 352.0 218.0 -233.0 -56.0 294.0 
132.0 352.0 218.0 -233.0 -56.0 294.0 437.0 
132.0 352.0 218.0 -233.0 -56.0 294.0 437.0 792.0 
132.0 352.0 218.0 -233.0 -56.0 294.0 437.0 792.0 203.0 
132.0 352.0 218.0 -233.0 -56.0 294.0 437.0 792.0 203.0 427.0 
132.0 352.0 218.0 -233.0 -56.0 294.0 437.0 792.0 203.0 427.0 171.0 
132.0 352.0 218.0 -233.0 -56.0 294.0 437.0 792.0 203.0 427.0 171.0 -74.0 
132.0 
132.0 362.0 
132.0 362.0 228.0 
132.0 362.0 228.0 -240.0 
132.0 362.0 228.0 -240.0 -42.0 
132.0 362.0 228.0 -240.0 -42.0 286.0 
132.0 362.0 228.0 -240.0 -42.0 286.0 432.0 
132.0 362.0 228.0 -240.0 -42.0 286.0 432.0 787.0 
132.0 362.0 228.0 -240.0 -42.0 286.0 432.0 787.0 198.0 
132.0 362.0 228.0 -240.0 -42.0 286.0 432.0 787.0 198.0 426.0 
132.0 362.0 228.0 -240.0 -42.0 286.0 432.0 787.0 198.0 426.0 171.0 
132.0 362.0 228.0 -240.0 -42.0 286.0 432.0 787.0 198.0 426.0 171.0 -69.0 
142.0 
142.0 352.0 
142.0 352.0 208.0 
142.0 352.0 208.0 -245.0 
142.0 352.0 208.0 -245.0 -46.0 
142.0 352.0 208.0 -245.0 -46.0 296.0 
142.0 352.0 208.0 -245.0 -46.0 296.0 431.0 
142.0 352.0 208.0 -245.0 -46.0 296.0 431.0 796.0 
142.0 352.0 208.0 -245.0 -46.0 296.0 431.0 796.0 212.0 
142.0 352.0 208.0 -245.0 -46.0 296.0 431.0 796.0 212.0 421.0 
142.0 352.0 208.0 -245.0 -46.0 296.0 431.0 796.0 212.0 421.0 171.0 
142.0 352.0 208.0 -245.0 -46.0 296.0 431.0 796.0 212.0 421.0 171.0 -69.0 
137.0 
137.0 362.0 
137.0 362.0 224.0 
137.0 362.0 224.0 -245.0 
137.0 362.0 224.0 -245.0 -32.0 
137.0 362.0 224.0 -245.0 -32.0 282.0 
137.0 362.0 224.0 -245.0 -32.0 282.0 421.0 
137.0 362.0 224.0 -245.0 -32.0 282.0 421.0 791.0 
137.0 362.0 224.0 -245.0 -32.0 282.0 421.0 791.0 207.0 
137.0 362.0 224.0 -245.0 -32.0 282.0 421.0 791.0 207.0 440.0 
137.0 362.0 224.0 -245.0 -32.0 282.0 421.0 791.0 207.0 440.0 181.0 
137.0 362.0 224.0 -245.0 -32.0 282.0 421.0 791.0 207.0 440.0 181.0 -60.0 
123.0 
123.0 347.0 
123.0 347.0 224.0 
123.0 347.0 224.0 -248.0 
123.0 347.0 224.0 -248.0 -42.0 
123.0 347.0 224.0 -248.0 -42.0 295.0 
123.0 347.0 224.0 -248.0 -42.0 295.0 426.0 
123.0 347.0 224.0 -248.0 -42.0 295.0 426.0 787.0 
123.0 347.0 224.0 -248.0 -42.0 295.0 426.0 787.0 203.0 
123.0 347.0 224.0 -248.0 -42.0 295.0 426.0 787.0 203.0 430.0 
123.0 347.0 224.0 -248.0 -42.0 295.0 426.0 787.0 203.0 430.0 181.0 
123.0 347.0 224.0 -248.0 -42.0 295.0 426.0 787.0 203.0 430.0 181.0 -55.0 
108.0 
108.0 323.0 
108.0 323.0 214.0 
108.0 323.0 214.0 -233.0 
108.0 323.0 214.0 -233.0 -49.0 
108.0 323.0 214.0 -233.0 -49.0 287.0 
108.0 323.0 214.0 -233.0 -49.0 287.0 426.0 
108.0 323.0 214.0 -233.0 -49.0 287.0 426.0 787.0 
108.0 323.0 214.0 -233.0 -49.0 287.0 426.0 787.0 207.0 
108.0 323.0 214.0 -233.0 -49.0 287.0 426.0 787.0 207.0 430.0 
108.0 323.0 214.0 -233.0 -49.0 287.0 426.0 787.0 207.0 430.0 181.0 
108.0 323.0 214.0 -233.0 -49.0 287.0 426.0 787.0 207.0 430.0 181.0 -54.0 
118.0 
118.0 342.0 
118.0 342.0 224.0 
118.0 342.0 224.0 -214.0 
118.0 342.0 224.0 -214.0 -51.0 
118.0 342.0 224.0 -214.0 -51.0 270.0 
118.0 342.0 224.0 -214.0 -51.0 270.0 426.0 
118.0 342.0 224.0 -214.0 -51.0 270.0 426.0 786.0 
118.0 342.0 224.0 -214.0 -51.0 270.0 426.0 786.0 207.0 
118.0 342.0 224.0 -214.0 -51.0 270.0 426.0 786.0 207.0 434.0 
